0.000000000000000000e+00
-3.386741600000000175e-03
-3.247204400000000199e-03
-1.602475600000000111e-03
9.280458000000000110e-04
2.333218800000000023e-03
2.425614400000000118e-03
-1.501525300000000184e-03
-3.001755900000000355e-03
-1.286230000000000050e-05
-3.415237100000000255e-03
-2.538241200000000176e-03
2.635864000000000349e-04
2.562828400000000204e-03
-1.282600000000000053e-05
1.905314400000000102e-03
-2.513557200000000099e-03
-1.285020000000000107e-05
-3.489894100000000363e-03
-3.071585000000000374e-03
-7.151100000000000295e-04
1.345725700000000111e-03
2.565841300000000231e-03
2.235547600000000260e-03
3.724259000000000488e-04
-2.010983700000000280e-03
-3.309713000000000151e-03
-1.797116200000000146e-03
8.101313000000000611e-04
2.246740100000000143e-03
2.454351900000000322e-03
1.316492100000000087e-03
-1.380404300000000108e-03
-2.934479900000000127e-03
-2.677572700000000264e-03
9.264970000000000844e-05
1.753798200000000057e-03
-1.283810000000000165e-05
2.580554899999999968e-03
-1.281390000000000110e-05
-5.196708000000000187e-04
-2.431700699999999986e-03
-1.283810000000000165e-05
-3.513222900000000180e-03
-9.178092000000000758e-04
1.239475600000000070e-03
-1.285020000000000107e-05
2.527641600000000380e-03
2.266680899999999957e-03
5.451171000000000532e-04
-1.910747300000000069e-03
-3.347235100000000088e-03
-1.285020000000000107e-05
-1.997746299999999999e-03
6.905954000000000389e-04
2.157817200000000310e-03
2.474885600000000224e-03
-1.257540900000000007e-03
-2.851861100000000274e-03
-1.285020000000000107e-05
-3.468561800000000053e-03
-2.813685600000000002e-03
-6.811090000000000547e-05
1.649750300000000060e-03
2.577965500000000375e-03
-3.423695000000000362e-04
-2.346323100000000019e-03
-1.287440000000000162e-05
-3.495980400000000231e-03
-3.193323100000000116e-03
-3.171942400000000214e-03
2.465120900000000205e-03
2.315310799999999950e-03
7.051154000000000015e-04
-3.230349100000000015e-03
-3.389887600000000053e-03
-2.174612000000000246e-03
5.626863000000000611e-04
-1.282600000000000053e-05
2.499206600000000115e-03
-1.287440000000000162e-05
1.577815800000000046e-03
-1.113248399999999978e-03
-2.918483700000000167e-03
-2.646753999999999969e-04
-1.283810000000000165e-05
1.543718000000000130e-03
2.585528000000000132e-03
2.082506800000000300e-03
-1.281390000000000110e-05
-1.628176000000000113e-04
-2.263922100000000277e-03
-3.487607200000000275e-03
-3.231522800000000400e-03
-1.345967700000000019e-03
2.402225100000000054e-03
2.336764100000000323e-03
-1.283810000000000165e-05
8.800330000000000088e-04
-1.712888100000000118e-03
-3.422823800000000024e-03
-2.354006600000000272e-03
-1.285020000000000107e-05
4.377417000000000309e-04
2.509068100000000183e-03
1.706063700000000089e-03
-1.283810000000000165e-05
-9.783939000000000177e-04
-2.685994300000000244e-03
-4.474580000000000246e-04
-1.283810000000000165e-05
0.000000000000000000e+00
1.446264600000000044e-03
2.134343199999999986e-03
-1.281390000000000110e-05
-2.180904000000000002e-03
-3.448633100000000028e-03
-3.291066900000000350e-03
-1.546912400000000033e-03
9.417067000000000753e-04
2.323405699999999980e-03
1.027810299999999981e-03
-1.605851500000000107e-03
-1.280180000000000167e-05
0.000000000000000000e+00
-3.087702200000000397e-03
-2.509201200000000034e-03
2.801029000000000452e-04
1.858572100000000209e-03
-1.277760000000000113e-05
2.527556900000000120e-03
1.800806700000000087e-03
-8.141969000000000853e-04
-3.544743400000000075e-03
7.904204000000000395e-04
8.564238429999999902e-02
-7.850557439999999998e-02
2.551006699999999999e-03
2.168997599999999970e-03
2.149565000000000145e-04
-3.412817100000000315e-03
-1.287440000000000162e-05
0.000000000000000000e+00
-3.326423100000000261e-03
-1.748026500000000134e-03
2.246219800000000093e-03
-1.285020000000000107e-05
1.204179899999999973e-03
-1.483859300000000018e-03
-3.013868000000000276e-03
-3.477056000000000070e-03
-1.289860000000000048e-05
-2.664008600000000032e-03
1.468819000000000006e-04
1.763296700000000156e-03
1.898659400000000160e-03
-6.562677000000000050e-04
-1.282600000000000053e-05
-2.514791400000000298e-03
-3.538173100000000394e-03
-3.149581600000000026e-03
-8.582409000000000045e-04
1.254237600000000048e-03
2.504917800000000007e-03
2.221898800000000201e-03
3.994573000000000286e-04
-2.006228400000000228e-03
-3.376311400000000032e-03
7.214746000000000397e-04
-1.283810000000000165e-05
2.161519800000000040e-03
2.433915000000000037e-03
1.335452800000000049e-03
-1.283810000000000165e-05
-1.363682099999999993e-03
-2.932084100000000200e-03
-3.502599100000000371e-03
-2.783859100000000107e-03
-2.654740000000000268e-05
1.661100100000000024e-03
2.552567600000000148e-03
1.968524799999999981e-03
-4.734730000000000254e-04
-3.545542000000000051e-03
-1.278970000000000055e-05
-3.189318000000000014e-03
1.160753000000000045e-03
-1.281390000000000110e-05
2.471884799999999986e-03
2.253237800000000221e-03
5.722332000000000763e-04
-1.901539200000000119e-03
-3.299984600000000368e-03
-3.399410300000000381e-03
-2.116483599999999937e-03
5.971108000000000362e-04
2.453928400000000322e-03
-1.234853400000000085e-03
-2.854946600000000338e-03
-3.514795900000000119e-03
-1.282600000000000053e-05
-2.907327500000000085e-03
-1.766116000000000083e-04
1.564094400000000168e-03
2.547909100000000145e-03
-1.285020000000000107e-05
2.032545900000000058e-03
-2.972485999999999987e-04
-2.340539300000000090e-03
-3.521874400000000061e-03
-3.250507700000000375e-03
-1.260287600000000114e-03
1.063372199999999997e-03
2.400748900000000165e-03
2.300064799999999941e-03
7.527652000000000345e-04
-1.810994900000000105e-03
-3.228267900000000249e-03
-3.436968700000000120e-03
-2.290106500000000257e-03
4.732310000000000097e-04
1.979547900000000211e-03
2.469622100000000344e-03
1.601943200000000055e-03
-1.089592899999999994e-03
-2.765515500000000244e-03
-3.539903400000000196e-03
-3.774474000000000210e-04
1.466701500000000113e-03
2.551357599999999962e-03
-1.285020000000000107e-05
2.073080900000000022e-03
-1.040600000000000032e-04
-2.257690600000000335e-03
-3.507281800000000387e-03
-3.291696100000000239e-03
9.601229000000000837e-04
2.341337900000000066e-03
2.326491200000000044e-03
9.116261000000000503e-04
-1.286230000000000050e-05
-1.696734600000000077e-03
-3.164150000000000122e-03
-2.452198100000000085e-03
3.414257000000000403e-04
-1.286230000000000050e-05
1.890951700000000112e-03
2.486174900000000156e-03
1.721152400000000018e-03
-9.408476000000000686e-04
-2.680924400000000030e-03
-3.552632600000000217e-03
-3.069552200000000199e-03
-5.535024000000000150e-04
1.377209899999999989e-03
2.125219800000000079e-03
7.464490000000000762e-05
-1.286230000000000050e-05
-2.173910200000000320e-03
-3.334639000000000353e-03
-1.655885000000000169e-03
2.264442400000000327e-03
-1.277760000000000113e-05
0.000000000000000000e+00
2.371491100000000345e-03
1.074032300000000040e-03
-1.589407600000000134e-03
-3.081325500000000380e-03
-3.491600200000000154e-03
2.013803000000000207e-04
1.795555300000000213e-03
-1.283810000000000165e-05
2.500392400000000289e-03
1.816185800000000164e-03
-7.735288000000000537e-04
-2.594808700000000336e-03
-3.569729900000000091e-03
-3.136138500000000291e-03
-7.625904000000000840e-04
1.286217900000000179e-03
2.512419800000000383e-03
2.165524900000000141e-03
-2.085798000000000253e-03
-3.370261400000000400e-03
-1.285020000000000107e-05
0.000000000000000000e+00
-1.837723800000000147e-03
7.591419000000000509e-04
2.192737799999999997e-03
2.388854600000000356e-03
1.224278000000000085e-03
-1.467137100000000119e-03
-3.514178800000000453e-03
-2.733099600000000323e-03
6.341610000000001105e-05
-1.286230000000000050e-05
1.710758500000000111e-03
2.517356600000000312e-03
1.908823400000000167e-03
-6.146558000000000316e-04
-2.510749999999999961e-03
-3.571206100000000414e-03
1.205111600000000017e-03
-1.285020000000000107e-05
2.476700600000000287e-03
-1.287440000000000162e-05
2.222818400000000239e-03
4.479057000000000372e-04
-1.997552700000000334e-03
-3.367780900000000213e-03
-3.417657100000000194e-03
-2.025128599999999942e-03
6.621483000000000924e-04
2.123114400000000301e-03
2.430212400000000307e-03
1.372248900000000047e-03
-1.345713600000000105e-03
-2.942974100000000145e-03
-3.533490400000000378e-03
-2.861674200000000317e-03
-9.687260000000000489e-05
2.531150600000000011e-03
-1.286230000000000050e-05
1.974538500000000245e-03
-4.283642000000000482e-04
-2.428736199999999984e-03
-3.572222500000000068e-03
-3.246284800000000161e-03
-1.150480099999999983e-03
1.115269100000000147e-03
2.438416200000000176e-03
2.253721800000000035e-03
6.160231000000000821e-04
-1.898078600000000079e-03
-3.310547900000000363e-03
-3.443950400000000446e-03
-2.201183599999999990e-03
5.381838000000000767e-04
2.035437800000000023e-03
2.449148900000000257e-03
1.507914100000000207e-03
-1.204845400000000098e-03
-2.852913800000000163e-03
-3.563389500000000310e-03
-2.956102600000000153e-03
-2.604162000000000360e-04
1.528847100000000096e-03
2.033453400000000307e-03
-2.597628000000000263e-04
-1.283810000000000165e-05
-2.340515100000000077e-03
-3.284145700000000272e-03
-1.282600000000000053e-05
-1.349283099999999984e-03
1.023720500000000052e-03
2.380735500000000313e-03
2.301807199999999966e-03
8.015282000000000960e-04
-1.795301200000000083e-03
-3.237306600000000329e-03
-3.473377600000000353e-03
-2.369046899999999959e-03
4.237420000000000097e-04
1.949322100000000111e-03
2.458054500000000052e-03
1.630898500000000154e-03
-1.062936599999999990e-03
-2.763591600000000342e-03
-3.042375600000000145e-03
-1.281390000000000110e-05
1.433450700000000197e-03
2.529553400000000059e-03
-1.283810000000000165e-05
2.077400600000000284e-03
-6.334350000000000093e-05
-2.254205800000000284e-03
-3.326374700000000236e-03
-1.281390000000000110e-05
-1.528157400000000176e-03
9.227460000000001130e-04
2.309018800000000194e-03
2.323768700000000166e-03
9.427715000000000791e-04
-1.675390200000000194e-03
-3.156030900000000080e-03
-2.500961100000000364e-03
-1.285020000000000107e-05
2.855963000000000425e-04
2.479931299999999991e-03
1.733615400000000119e-03
-8.998528000000000863e-04
-2.664105400000000082e-03
-3.575864600000000417e-03
-3.102984500000000208e-03
-6.330720000000000401e-04
-1.287440000000000162e-05
1.333831400000000085e-03
2.512552900000000235e-03
2.118298600000000000e-03
1.264450000000000133e-04
-2.157502600000000149e-03
-3.459365800000000109e-03
-3.351300700000000438e-03
-1.728472900000000085e-03
8.247844000000000919e-04
2.229025700000000169e-03
2.359173300000000102e-03
1.117568100000000024e-03
-1.566768500000000021e-03
-3.072432000000000375e-03
-3.502490200000000099e-03
-2.651400400000000074e-03
1.754657300000000064e-03
-1.288650000000000105e-05
2.493217100000000297e-03
-7.446219000000000882e-04
-3.572198300000000055e-03
-1.278970000000000055e-05
-3.161802600000000220e-03
-1.278970000000000055e-05
1.251454600000000139e-03
-1.277760000000000113e-05
2.484831800000000118e-03
2.172288800000000356e-03
3.037463000000000229e-04
-2.063763900000000016e-03
-3.389597200000000338e-03
-1.286230000000000050e-05
-1.898804600000000235e-03
7.184617000000000130e-04
2.156171600000000334e-03
1.250292999999999977e-03
-1.433874200000000198e-03
-2.990502900000000224e-03
-1.283810000000000165e-05
-3.523846700000000422e-03
1.664560700000000063e-03
-1.287440000000000162e-05
2.511451800000000321e-03
1.906960000000000079e-03
-1.283810000000000165e-05
-5.710958000000000354e-04
-2.487118700000000206e-03
-3.202083500000000270e-03
-1.011923000000000076e-03
-1.277760000000000113e-05
1.158369300000000124e-03
2.446305400000000317e-03
2.203155900000000351e-03
4.809629000000000161e-04
-1.968573200000000006e-03
-3.347283500000000113e-03
-2.082107500000000312e-03
6.140871000000000654e-04
2.073589100000000282e-03
2.408601800000000071e-03
1.403503200000000024e-03
-1.313043600000000054e-03
-1.278970000000000055e-05
-2.906008600000000060e-03
-3.526254600000000138e-03
-1.561747000000000211e-04
1.570834100000000153e-03
-1.282600000000000053e-05
2.505716399999999983e-03
1.974586900000000270e-03
-2.400652100000000115e-03
-3.550950700000000439e-03
-1.283810000000000165e-05
-3.250822300000000102e-03
-1.208947300000000032e-03
2.394771500000000136e-03
-1.285020000000000107e-05
2.245905200000000365e-03
-1.867393000000000178e-03
-2.237919200000000174e-03
-1.283810000000000165e-05
4.895055000000000586e-04
-1.286230000000000050e-05
0.000000000000000000e+00
1.986650600000000166e-03
2.431495000000000097e-03
1.520909500000000147e-03
-2.813431500000000089e-03
-3.547127100000000213e-03
-1.286230000000000050e-05
-2.969739299999999988e-03
1.474917400000000205e-03
-1.281390000000000110e-05
2.520829300000000141e-03
2.022152000000000151e-03
-2.301916100000000239e-03
-1.277760000000000113e-05
-3.281302200000000332e-03
-1.278970000000000055e-05
-1.403733100000000142e-03
9.715211000000000723e-04
2.332589600000000134e-03
-1.755516400000000071e-03
-1.278970000000000055e-05
-3.202059300000000257e-03
-1.281390000000000110e-05
-3.462971600000000223e-03
-2.412098700000000345e-03
1.897643000000000073e-03
2.448277700000000244e-03
1.655267900000000070e-03
-1.283810000000000165e-05
-1.018771600000000117e-03
-2.727146400000000307e-03
-3.549764900000000264e-03
-3.063320700000000257e-03
-5.072441000000000449e-04
2.499618000000000326e-03
-1.283810000000000165e-05
-2.222649000000000152e-03
-1.280180000000000167e-05
-3.482367900000000408e-03
-1.281390000000000110e-05
-3.335970000000000168e-03
-1.592553600000000012e-03
2.265095800000000228e-03
9.912320000000000939e-04
-1.283810000000000165e-05
-1.642780700000000173e-03
-1.282600000000000053e-05
-3.123530300000000332e-03
-3.489301200000000276e-03
-2.553547700000000000e-03
1.805743500000000015e-03
2.474873500000000000e-03
1.750228700000000179e-03
-8.531589000000001097e-04
-2.637013500000000288e-03
-3.576808400000000034e-03
-1.277760000000000113e-05
-3.116282400000000303e-03
1.296793300000000180e-03
2.494064100000000297e-03
2.122098000000000213e-03
-1.282600000000000053e-05
-2.126950100000000315e-03
-1.278970000000000055e-05
-3.444494900000000075e-03
-3.359589200000000133e-03
-1.784689500000000064e-03
2.194552800000000060e-03
2.355555400000000198e-03
-1.285020000000000107e-05
1.144188100000000010e-03
-1.526064100000000187e-03
-3.052249200000000003e-03
-3.501485900000000234e-03
-2.698469400000000351e-03
2.472768100000000222e-03
1.847803100000000110e-03
-1.278970000000000055e-05
-6.955322000000000761e-04
-1.277760000000000113e-05
-2.548598800000000282e-03
-3.176867100000000353e-03
1.209721699999999995e-03
2.177866899999999963e-03
3.436763000000000014e-04
-2.037119700000000234e-03
-3.386475400000000038e-03
-1.283810000000000165e-05
-3.405169900000000298e-03
6.718888000000000985e-04
2.115031600000000060e-03
-1.286230000000000050e-05
0.000000000000000000e+00
-2.966629600000000345e-03
-1.280180000000000167e-05
-3.523507900000000248e-03
-6.382750000000000511e-05
-1.287440000000000162e-05
2.498444300000000375e-03
-1.281390000000000110e-05
0.000000000000000000e+00
0.000000000000000000e+00
0.000000000000000000e+00
1.917341800000000197e-03
-5.145162000000000867e-04
-3.571145600000000166e-03
-1.283810000000000165e-05
-3.222060600000000320e-03
-1.078751300000000074e-03
1.116297600000000024e-03
2.421923900000000178e-03
2.211952600000000307e-03
5.203000000000000159e-04
-1.932478900000000150e-03
-3.428414000000000288e-03
2.038958900000000310e-03
-1.283810000000000165e-05
0.000000000000000000e+00
0.000000000000000000e+00
1.436124800000000050e-03
-1.280180000000000167e-05
-2.882486200000000144e-03
-2.922960700000000293e-03
-1.283810000000000165e-05
0.000000000000000000e+00
-2.084346000000000050e-04
1.533735500000000000e-03
2.498710500000000077e-03
-3.388242000000000077e-04
-1.282600000000000053e-05
-2.372640600000000283e-03
-3.546473700000000312e-03
-1.273609700000000004e-03
-1.285020000000000107e-05
2.367824799999999983e-03
2.263680100000000153e-03
-1.285020000000000107e-05
-1.839018500000000160e-03
-3.462076200000000197e-03
-1.277760000000000113e-05
-2.293627600000000110e-03
4.476758000000000278e-04
2.437835400000000312e-03
1.555164600000000143e-03
-1.125421000000000147e-03
-1.281390000000000110e-05
0.000000000000000000e+00
-3.562191600000000347e-03
-1.283810000000000165e-05
-3.005204400000000171e-03
-3.849130999999999993e-04
2.515662600000000311e-03
-1.287440000000000162e-05
2.041572500000000349e-03
-1.574331000000000157e-04
-2.286028800000000118e-03
-1.458328300000000157e-03
-1.282600000000000053e-05
0.000000000000000000e+00
9.385002000000000578e-04
2.313556300000000135e-03
2.292816900000000345e-03
-1.724637200000000070e-03
-1.286230000000000050e-05
-3.189257500000000200e-03
-3.480456100000000295e-03
-2.452258600000000333e-03
3.268936000000000172e-04
1.871277100000000217e-03
2.451399500000000110e-03
1.682129900000000179e-03
-9.825320999999999708e-04
-3.563692000000000248e-03
-5.659775000000000136e-04
-1.281390000000000110e-05
1.356264800000000093e-03
-1.282600000000000053e-05
2.495867000000000138e-03
2.099132200000000149e-03
2.885850000000000161e-05
-3.478798400000000096e-03
-1.283810000000000165e-05
-1.656538400000000071e-03
2.240436000000000163e-03
2.340430400000000251e-03
1.021675600000000088e-03
-3.502478100000000309e-03
-1.280180000000000167e-05
-2.591977300000000185e-03
-1.280180000000000167e-05
0.000000000000000000e+00
1.903209000000000161e-04
1.775263600000000219e-03
-1.278970000000000055e-05
2.475708400000000212e-03
-8.081469000000000196e-04
-2.613212800000000013e-03
-3.138510100000000205e-03
-1.281390000000000110e-05
0.000000000000000000e+00
-7.533460000000000070e-04
2.488558600000000294e-03
-1.287440000000000162e-05
2.135444300000000333e-03
2.156704000000000010e-04
-2.101031900000000039e-03
-3.429974900000000437e-03
-3.375125600000000291e-03
-1.830863100000000099e-03
2.176209200000000198e-03
-1.285020000000000107e-05
2.363771300000000290e-03
1.189659900000000119e-03
-3.029997300000000088e-03
-3.514130400000000428e-03
-1.288650000000000105e-05
-2.732434100000000199e-03
6.008860000000000606e-05
1.872934800000000200e-03
-1.281390000000000110e-05
-6.466724000000000734e-04
-1.281390000000000110e-05
-2.527072900000000306e-03
-3.562687700000000384e-03
-3.194242700000000153e-03
-9.415494000000001031e-04
1.188583000000000001e-03
2.450540400000000320e-03
2.187546900000000155e-03
6.492013000000000688e-04
-1.288650000000000105e-05
2.099410500000000075e-03
-1.283810000000000165e-05
0.000000000000000000e+00
2.396574399999999976e-03
-1.278970000000000055e-05
1.326704500000000118e-03
-1.362544700000000060e-03
-2.942986200000000368e-03
-3.530223400000000438e-03
-1.280180000000000167e-05
-2.840233000000000167e-03
1.604036500000000044e-03
-4.718274000000000491e-04
-2.435173400000000248e-03
-3.227275700000000174e-03
-1.127393300000000074e-03
1.097203799999999993e-03
-1.286230000000000050e-05
0.000000000000000000e+00
0.000000000000000000e+00
0.000000000000000000e+00
2.416224800000000075e-03
-3.307740700000000224e-03
-1.280180000000000167e-05
-3.433568600000000328e-03
-1.282600000000000053e-05
-2.178375100000000224e-03
2.022502900000000114e-03
2.419189300000000077e-03
-1.285020000000000107e-05
0.000000000000000000e+00
-1.231864700000000071e-03
-1.282600000000000053e-05
-3.539104800000000221e-03
-1.278970000000000055e-05
-2.461140000000000224e-04
1.515803300000000131e-03
2.006506700000000153e-03
-1.280180000000000167e-05
-2.349057700000000120e-03
-1.282600000000000053e-05
0.000000000000000000e+00
-3.534059100000000453e-03
-3.280794000000000071e-03
-1.321997600000000090e-03
1.013060400000000008e-03
2.277304700000000199e-03
-1.287440000000000162e-05
7.365996000000000956e-04
-1.811793500000000081e-03
-3.463455600000000037e-03
-2.327943200000000355e-03
4.204508000000000030e-04
1.935249800000000053e-03
1.586939200000000169e-03
-1.280180000000000167e-05
-2.767875000000000370e-03
-3.017994100000000006e-03
-1.281390000000000110e-05
-4.317522000000000503e-04
-1.281390000000000110e-05
0.000000000000000000e+00
1.424339400000000080e-03
2.514960800000000385e-03
2.051131500000000045e-03
-1.029589000000000079e-04
-2.259941200000000188e-03
-3.308878100000000374e-03
-1.287440000000000162e-05
-1.498464000000000133e-03
9.213303000000000378e-04
2.308438000000000330e-03
2.299859100000000052e-03
9.096054000000000986e-04
-1.694302500000000131e-03
-3.169486100000000039e-03
-3.482997100000000297e-03
-2.484916500000000378e-03
2.979383000000000270e-04
1.853284400000000101e-03
2.459107200000000375e-03
1.702820900000000161e-03
-9.439936000000000551e-04
-2.688123900000000035e-03
-3.566136200000000200e-03
-3.097515300000000006e-03
-5.906252000000000724e-04
1.340813100000000195e-03
2.493289700000000334e-03
2.106380100000000179e-03
7.645990000000000295e-05
-2.178326700000000199e-03
-3.464822900000000087e-03
-3.352256600000000277e-03
-1.685360600000000101e-03
8.360737000000000247e-04
2.232316900000000121e-03
-1.586515700000000169e-03
-3.498944900000000233e-03
-1.283810000000000165e-05
-2.616588700000000225e-03
-1.287440000000000162e-05
0.000000000000000000e+00
1.722798000000000103e-04
1.767761600000000060e-03
2.478128400000000151e-03
1.799971800000000092e-03
-7.740249000000000911e-04
-2.595897700000000027e-03
-3.577824800000000121e-03
-3.149230700000000063e-03
1.254394900000000129e-03
-1.283810000000000165e-05
2.144543500000000227e-03
2.497924000000000108e-04
-1.285020000000000107e-05
-2.086233600000000042e-03
-3.424663000000000099e-03
-1.853998300000000033e-03
7.277061000000000900e-04
-1.462672199999999999e-03
-1.282600000000000053e-05
-3.014836000000000339e-03
-1.277760000000000113e-05
-3.516284200000000231e-03
3.420669999999999896e-05
-1.280180000000000167e-05
0.000000000000000000e+00
1.683388300000000174e-03
2.490930200000000209e-03
1.888906800000000148e-03
-3.566680700000000263e-03
-1.287440000000000162e-05
0.000000000000000000e+00
-3.201393800000000133e-03
-9.689559000000000583e-04
1.168714800000000007e-03
2.443026300000000154e-03
-1.281390000000000110e-05
2.201316700000000275e-03
4.317038000000000255e-04
-3.417487700000000107e-03
-2.035812899999999998e-03
-1.285020000000000107e-05
2.085955300000000116e-03
-1.283810000000000165e-05
0.000000000000000000e+00
2.404560400000000167e-03
1.358745300000000064e-03
-2.927292500000000346e-03
-1.285020000000000107e-05
-3.528553600000000449e-03
-2.854075400000000325e-03
-1.268080000000000097e-04
1.588959900000000121e-03
2.506212500000000020e-03
1.956436900000000072e-03
-4.293201000000000504e-04
-2.418947299999999953e-03
-3.244239900000000197e-03
-1.161249100000000083e-03
1.085817700000000011e-03
2.411493700000000035e-03
-1.278970000000000055e-05
-1.885797100000000072e-03
-1.285020000000000107e-05
0.000000000000000000e+00
-3.293160200000000339e-03
-3.442462100000000334e-03
-2.195036800000000309e-03
2.009676900000000044e-03
-1.283810000000000165e-05
2.426897000000000342e-03
-1.203478100000000047e-03
-2.841213100000000019e-03
-1.278970000000000055e-05
-3.547429600000000151e-03
-2.955679100000000153e-03
-2.696606000000000046e-04
1.505070600000000050e-03
2.509612600000000245e-03
2.017130499999999962e-03
-2.580204000000000004e-04
-3.528977100000000450e-03
-3.280987600000000171e-03
-1.283810000000000165e-05
-1.343100000000000066e-03
1.005086500000000041e-03
2.284322700000000327e-03
7.745573000000000388e-04
-1.791320300000000211e-03
-3.221794400000000183e-03
-3.468670700000000325e-03
-2.345851199999999994e-03
-1.281390000000000110e-05
4.123801000000000398e-04
1.929163500000000185e-03
2.444417800000000217e-03
1.617636900000000077e-03
-1.056644600000000017e-03
-2.752181300000000348e-03
-3.554532300000000106e-03
-3.030009400000000311e-03
-4.520076000000000259e-04
1.420128600000000090e-03
2.516582200000000349e-03
2.067853699999999944e-03
-7.863790000000000818e-05
-2.246026199999999994e-03
-3.314661900000000303e-03
-1.281390000000000110e-05
-1.522204200000000160e-03
9.112631000000000810e-04
2.295321600000000111e-03
9.351969000000000991e-04
-3.150827900000000015e-03
-2.495419300000000125e-03
-1.278970000000000055e-05
2.761220000000000102e-04
-1.283810000000000165e-05
0.000000000000000000e+00
1.843689100000000169e-03
1.722084100000000062e-03
-9.062779000000000191e-04
-2.667578100000000344e-03
-1.278970000000000055e-05
-3.566160400000000213e-03
-3.102742500000000084e-03
-6.285708000000000094e-04
1.327442600000000063e-03
2.499811599999999991e-03
2.110820800000000070e-03
1.082103000000000031e-04
-2.159075600000000088e-03
-3.453872400000000328e-03
-3.359710200000000195e-03
-1.717316700000000220e-03
8.157941000000000368e-04
2.225710300000000204e-03
2.344834800000000340e-03
1.099623800000000149e-03
-1.569224800000000196e-03
-3.073121700000000078e-03
-3.502574900000000359e-03
-2.641272700000000303e-03
2.477632300000000114e-03
-1.283810000000000165e-05
1.817916100000000184e-03
-1.282600000000000053e-05
-7.506598000000000393e-04
-2.578933500000000004e-03
-3.571835300000000303e-03
-8.181052000000000289e-04
1.240673500000000033e-03
2.482484400000000216e-03
-1.282600000000000053e-05
2.853664000000000331e-04
-1.281390000000000110e-05
-2.067539100000000216e-03
-1.880957100000000192e-03
-1.285020000000000107e-05
7.109718000000000765e-04
2.152251200000000059e-03
-1.282600000000000053e-05
2.380154700000000016e-03
-3.521608200000000358e-03
-1.281390000000000110e-05
0.000000000000000000e+00
-2.764027200000000132e-03
-1.278970000000000055e-05
1.668626300000000196e-03
-1.281390000000000110e-05
1.898586800000000123e-03
-1.282600000000000053e-05
-2.493398600000000173e-03
-3.206729900000000050e-03
-1.283810000000000165e-05
-1.000536900000000094e-03
-1.287440000000000162e-05
1.153626100000000078e-03
2.440606300000000214e-03
2.200917400000000287e-03
4.593039000000000258e-04
-3.345371700000000434e-03
-1.289860000000000048e-05
-3.419532600000000071e-03
-2.063304100000000214e-03
2.075041100000000159e-03
-1.286230000000000050e-05
2.401777400000000041e-03
-1.324611200000000129e-03
-2.912191700000000411e-03
-2.877827700000000141e-03
-1.278970000000000055e-05
-1.446434000000000185e-04
1.575831400000000113e-03
2.504651600000000304e-03
-1.285020000000000107e-05
1.968415900000000142e-03
-4.128762000000000230e-04
-2.407028800000000131e-03
-3.554834800000000045e-03
-3.254246600000000340e-03
-1.191910500000000189e-03
1.070922599999999964e-03
2.243340000000000351e-03
-1.278970000000000055e-05
-1.876032400000000053e-03
-3.449431700000000437e-03
-1.283810000000000165e-05
-2.218704400000000299e-03
1.996536300000000246e-03
2.429304900000000059e-03
-1.282600000000000053e-05
-1.180088799999999983e-03
-2.827794200000000296e-03
-3.550345700000000129e-03
-1.282600000000000053e-05
0.000000000000000000e+00
-2.966750600000000408e-03
1.485275000000000093e-03
2.508850300000000071e-03
-1.288650000000000105e-05
2.020712100000000063e-03
-2.295007000000000167e-04
-2.314221800000000259e-03
-3.525661700000000051e-03
-1.385800900000000056e-03
9.792893000000000431e-04
-1.283810000000000165e-05
2.338506500000000349e-03
8.056301000000000304e-04
-1.768487600000000215e-03
-3.209270900000000051e-03
-1.283810000000000165e-05
-3.468549700000000263e-03
3.810532000000000264e-04
1.903039600000000020e-03
-1.278970000000000055e-05
2.446777300000000342e-03
-1.033799800000000015e-03
-2.737709700000000301e-03
-4.914052000000000567e-04
-1.282600000000000053e-05
0.000000000000000000e+00
0.000000000000000000e+00
1.397779900000000125e-03
2.504954100000000242e-03
2.071774100000000219e-03
-4.022040000000000543e-05
-2.234700600000000259e-03
-3.495798900000000355e-03
-3.328903600000000015e-03
8.867364000000000843e-04
2.278430000000000125e-03
2.313798300000000259e-03
-1.285020000000000107e-05
-1.658317100000000115e-03
-3.136937100000000266e-03
-3.489264900000000041e-03
-2.524725499999999970e-03
2.490543000000000119e-04
1.822235800000000230e-03
2.467419900000000083e-03
-8.844132000000000859e-04
-1.285020000000000107e-05
-2.654498000000000361e-03
-1.285020000000000107e-05
-3.571230300000000427e-03
-3.109869400000000051e-03
-6.636971000000000190e-04
1.308106800000000125e-03
2.490143700000000022e-03
2.117826699999999975e-03
1.438932000000000134e-04
-2.142619600000000325e-03
-3.448124900000000201e-03
-3.361985000000000060e-03
-1.748413700000000116e-03
2.207850700000000155e-03
1.123775400000000171e-03
-1.548775800000000121e-03
-1.287440000000000162e-05
0.000000000000000000e+00
-3.059981100000000280e-03
-2.667251400000000394e-03
1.271831000000000122e-04
1.733663800000000144e-03
-1.285020000000000107e-05
2.476192400000000026e-03
1.830681600000000223e-03
-7.226725000000000032e-04
-2.566664100000000219e-03
-8.533162000000000819e-04
-1.286230000000000050e-05
1.224592600000000029e-03
-1.285020000000000107e-05
2.469718899999999960e-03
3.092639000000000325e-04
-2.053745100000000084e-03
-3.395623000000000391e-03
-1.286230000000000050e-05
6.950724000000000572e-04
2.134839300000000023e-03
-1.281390000000000110e-05
2.383070799999999993e-03
1.266652200000000124e-03
-1.418059500000000113e-03
-3.525806900000000126e-03
-2.783314600000000045e-03
-1.286230000000000050e-05
-2.196150000000000310e-05
-1.283810000000000165e-05
1.649217900000000004e-03
1.909428400000000043e-03
-5.536355000000000833e-04
-1.286230000000000050e-05
-3.565676400000000398e-03
-1.287440000000000162e-05
-3.207092900000000236e-03
-1.029818900000000143e-03
1.140279800000000175e-03
2.206422900000000291e-03
-3.333416900000000377e-03
-1.285020000000000107e-05
-3.419326900000000183e-03
-2.091267200000000021e-03
-1.287440000000000162e-05
0.000000000000000000e+00
5.994098000000000221e-04
2.412219699999999974e-03
-1.286230000000000050e-05
-1.296115700000000049e-03
-2.891887900000000410e-03
-1.278970000000000055e-05
-3.532861200000000056e-03
-2.888923400000000408e-03
2.506575500000000206e-03
-1.286230000000000050e-05
1.980298100000000162e-03
-1.286230000000000050e-05
-2.389943600000000046e-03
-3.551132200000000315e-03
-1.285020000000000107e-05
-1.219873599999999995e-03
1.063154400000000102e-03
2.391165700000000022e-03
2.253842800000000098e-03
6.548036000000000134e-04
-1.287440000000000162e-05
-3.273037900000000215e-03
-3.444482800000000285e-03
4.831530000000000546e-04
-1.282600000000000053e-05
1.983008500000000250e-03
2.434955600000000137e-03
-1.154630400000000159e-03
-1.289860000000000048e-05
0.000000000000000000e+00
-2.977555900000000092e-03
-1.285020000000000107e-05
-3.225255000000000006e-04
-7.744000000000000522e-07
2.516691100000000188e-03
-2.025177000000000075e-04
-2.303101899999999980e-03
-3.286735100000000298e-03
-1.281390000000000110e-05
-1.396219000000000193e-03
9.725617000000000636e-04
2.289695100000000046e-03
8.330608000000001064e-04
-1.755855200000000027e-03
-3.198163100000000428e-03
-3.465040700000000199e-03
-1.280180000000000167e-05
3.776531000000000180e-04
1.901067300000000094e-03
2.451145400000000196e-03
-2.722221700000000168e-03
-1.283810000000000165e-05
0.000000000000000000e+00
-3.551567800000000105e-03
-1.287440000000000162e-05
-3.051753100000000399e-03
1.397731500000000101e-03
-1.289860000000000048e-05
2.088254299999999994e-03
-2.217107200000000347e-03
-1.283810000000000165e-05
0.000000000000000000e+00
-3.322938300000000209e-03
8.910924000000000405e-04
-1.278970000000000055e-05
2.288836000000000256e-03
-1.283810000000000165e-05
-1.636525000000000002e-03
-1.278970000000000055e-05
-6.343884800000000428e-03
-3.486869100000000114e-03
-2.526818799999999959e-03
2.516074000000000197e-04
1.824111300000000107e-03
2.477910600000000040e-03
-8.712242000000000467e-04
-1.285020000000000107e-05
-3.568495700000000326e-03
-1.282600000000000053e-05
-3.110522800000000386e-03
-6.630073999999999907e-04
1.306098200000000180e-03
2.498299100000000300e-03
2.130459099999999946e-03
1.603612999999999989e-04
-2.126199899999999931e-03
-3.437380100000000330e-03
-3.357060300000000354e-03
-1.750615900000000160e-03
7.989146000000000572e-04
2.214675100000000185e-03
2.365816200000000254e-03
1.143316899999999997e-03
-3.044081700000000369e-03
-1.278970000000000055e-05
-3.497529200000000157e-03
-2.660741600000000092e-03
1.743537400000000218e-03
-1.282600000000000053e-05
2.492987199999999962e-03
-7.053695000000000234e-04
-2.550885700000000370e-03
-1.281390000000000110e-05
-3.562711900000000396e-03
-3.159334200000000255e-03
-8.528927000000000817e-04
1.236934600000000068e-03
2.484432500000000130e-03
2.176281800000000235e-03
3.308019000000000150e-04
-2.038390200000000235e-03
-3.384841900000000285e-03
-1.281390000000000110e-05
-1.908823400000000167e-03
7.017879000000000304e-04
2.151271100000000207e-03
1.278703800000000014e-03
-1.410714800000000034e-03
-2.966145600000000097e-03
-3.517603100000000257e-03
-1.281390000000000110e-05
-2.773695100000000101e-03
-6.679200000000000358e-06
2.511100900000000358e-03
1.926029600000000097e-03
-1.285020000000000107e-05
-5.439192000000000896e-04
-3.552717300000000043e-03
-1.278970000000000055e-05
-3.200014400000000293e-03
-1.018650600000000055e-03
1.155356400000000098e-03
2.222237599999999941e-03
5.120599000000000201e-04
-1.285020000000000107e-05
-3.323676400000000371e-03
-3.411304600000000190e-03
-1.285020000000000107e-05
-2.081030599999999977e-03
6.152366000000000041e-04
2.072838900000000331e-03
2.425892700000000044e-03
1.423819100000000030e-03
-1.287004400000000149e-03
-2.883357400000000157e-03
-3.520132000000000035e-03
-1.593207000000000076e-04
1.573060500000000210e-03
-1.281390000000000110e-05
2.524350399999999994e-03
1.992192399999999971e-03
-3.657225000000000276e-04
-3.240125900000000257e-03
-1.209975800000000126e-03
1.072786000000000052e-03
2.410646700000000035e-03
-1.280180000000000167e-05
2.262978300000000227e-03
-1.283810000000000165e-05
6.720824000000000893e-04
-1.845298400000000127e-03
-3.433907400000000068e-03
-2.233502700000000295e-03
-1.281390000000000110e-05
4.948416000000000836e-04
1.997722099999999987e-03
2.449511900000000009e-03
1.545678200000000051e-03
-2.797265900000000041e-03
-3.539685600000000085e-03
-1.283810000000000165e-05
-2.961668600000000404e-03
-3.088646000000000447e-04
1.490611100000000010e-03
2.042153300000000213e-03
-1.278970000000000055e-05
-1.922811000000000181e-04
-3.508007800000000325e-03
-1.384953900000000055e-03
9.891024000000000864e-04
2.347896099999999958e-03
-1.281390000000000110e-05
2.302012900000000289e-03
8.432369000000000106e-04
-1.286230000000000050e-05
-3.185833200000000396e-03
-3.450206100000000400e-03
-1.285020000000000107e-05
-2.387535700000000330e-03
3.953554000000000400e-04
1.914970200000000065e-03
2.465483899999999957e-03
1.665202000000000175e-03
-1.013883199999999997e-03
-2.711573700000000347e-03
-3.540726200000000184e-03
-3.037547700000000055e-03
-4.835402000000000363e-04
2.523963200000000229e-03
-1.281390000000000110e-05
-1.641970000000000137e-05
-2.209895600000000120e-03
-1.286230000000000050e-05
-3.478774200000000084e-03
-3.309858200000000226e-03
-1.555721200000000212e-03
9.006151000000000434e-04
2.293119400000000283e-03
2.341011200000000115e-03
4.886153030000000425e-02
-1.631527700000000042e-03
-3.474176200000000329e-03
2.614568000000000274e-04
1.833198400000000212e-03
2.489248299999999997e-03
-1.291070000000000160e-05
0.000000000000000000e+00
1.755540600000000083e-03
-8.568252000000000377e-04
-2.630201200000000048e-03
-3.554435500000000057e-03
1.318803200000000187e-03
-1.287440000000000162e-05
0.000000000000000000e+00
2.511609100000000185e-03
-3.430519400000000066e-03
-1.278970000000000055e-05
-3.340120300000000344e-03
-1.285020000000000107e-05
0.000000000000000000e+00
-1.739471800000000085e-03
8.065376000000000619e-04
2.221523700000000226e-03
2.368768600000000033e-03
-1.531303400000000054e-03
-1.285020000000000107e-05
-3.488296900000000412e-03
-2.652029599999999963e-03
-1.280180000000000167e-05
1.748946100000000172e-03
-1.278970000000000055e-05
2.495528199999999964e-03
1.851179000000000106e-03
-7.042321000000000908e-04
-2.548405200000000183e-03
-3.553068200000000440e-03
-3.147815000000000422e-03
-8.345491000000001105e-04
2.485836099999999983e-03
2.188272900000000094e-03
3.253448000000000364e-04
-1.278970000000000055e-05
-3.382615500000000445e-03
-3.377557700000000020e-03
-1.281390000000000110e-05
-1.891665600000000044e-03
2.155022099999999961e-03
-1.280180000000000167e-05
2.398933900000000102e-03
-1.405197200000000025e-03
-3.512412200000000415e-03
-1.278970000000000055e-05
0.000000000000000000e+00
-4.222900000000000683e-06
1.664221900000000106e-03
2.519292600000000003e-03
-1.281390000000000110e-05
1.922072900000000237e-03
-5.436651000000000677e-04
-2.460063100000000214e-03
-3.556637700000000318e-03
-1.015177900000000010e-03
1.155864600000000141e-03
-1.281390000000000110e-05
2.450213700000000369e-03
5.087566000000000614e-04
-3.325382500000000161e-03
-1.283810000000000165e-05
-3.404347100000000310e-03
-2.069208900000000205e-03
-1.283810000000000165e-05
6.180922000000000586e-04
2.424791600000000130e-03
1.420745700000000189e-03
-1.285020000000000107e-05
-1.287548899999999994e-03
-2.883672000000000318e-03
-3.519514900000000369e-03
-2.872019700000000200e-03
1.583079300000000142e-03
-1.287440000000000162e-05
2.519268399999999991e-03
1.994781799999999997e-03
-3.779193000000000461e-04
-2.380203100000000040e-03
-3.535946700000000120e-03
-3.236919400000000131e-03
-1.193447200000000109e-03
1.082901600000000034e-03
2.408250900000000107e-03
2.268483800000000231e-03
6.559289000000000482e-04
-1.849593900000000160e-03
-3.432370700000000364e-03
-1.281390000000000110e-05
-2.210258600000000306e-03
5.078491000000000298e-04
2.452161800000000284e-03
-1.287440000000000162e-05
1.534074300000000174e-03
-1.148120600000000074e-03
-2.795971200000000028e-03
-3.539020100000000394e-03
-2.949544400000000260e-03
1.498427700000000114e-03
-1.285020000000000107e-05
2.534332900000000124e-03
-2.054459000000000179e-04
-1.278970000000000055e-05
-2.292030400000000159e-03
-3.512206500000000092e-03
-1.365436600000000025e-03
-1.283810000000000165e-05
2.300318900000000288e-03
-1.277760000000000113e-05
8.329156000000000320e-04
-1.746501900000000220e-03
-1.280180000000000167e-05
-3.186123600000000111e-03
4.053137000000000493e-04
1.924843800000000139e-03
2.464382800000000043e-03
-1.282600000000000053e-05
0.000000000000000000e+00
1.656453700000000027e-03
-1.019521800000000068e-03
-2.714284100000000002e-03
-3.535075500000000107e-03
-3.030396600000000076e-03
-4.677981000000000435e-04
2.517743800000000077e-03
2.100221200000000274e-03
-1.868240000000000260e-05
-1.291070000000000160e-05
-3.468452900000000214e-03
-1.280180000000000167e-05
-1.548025600000000170e-03
9.094239000000001140e-04
2.336219600000000261e-03
-1.287440000000000162e-05
9.713033000000000691e-04
-1.285020000000000107e-05
-1.641473900000000154e-03
-3.112894400000000301e-03
-3.470848700000000141e-03
-2.498516899999999978e-03
2.730849000000000254e-04
1.836610600000000227e-03
2.488050400000000034e-03
1.743259100000000075e-03
-8.696633000000000054e-04
-2.625627400000000305e-03
-3.547974100000000214e-03
-6.343304000000000347e-04
1.326813400000000174e-03
2.511766400000000048e-03
-1.285020000000000107e-05
2.127276800000000266e-03
1.512258000000000048e-04
-3.422448700000000048e-03
-3.320276300000000146e-03
8.155158000000000025e-04
2.221463199999999978e-03
-1.283810000000000165e-05
2.356402400000000199e-03
-1.291070000000000160e-05
1.131204800000000076e-03
-3.027214300000000396e-03
-3.468416600000000412e-03
-2.630963500000000222e-03
1.562957000000000018e-04
-1.281390000000000110e-05
1.739907400000000092e-03
2.476688500000000064e-03
1.830596900000000180e-03
-7.141299000000000691e-04
-3.122574400000000059e-03
-1.286230000000000050e-05
-8.201380000000000952e-04
-1.285020000000000107e-05
1.236184400000000117e-03
2.457038099999999965e-03
3.092760000000000387e-04
-1.283810000000000165e-05
-3.345686300000000162e-03
-1.286230000000000050e-05
-3.339793600000000393e-03
-1.863484700000000126e-03
7.050549000000000789e-04
2.360032400000000325e-03
-1.278970000000000055e-05
1.234853400000000085e-03
-1.401059000000000072e-03
-2.926663300000000023e-03
-3.462923200000000198e-03
-2.712469100000000372e-03
-1.052700000000000102e-06
1.631394600000000191e-03
1.870611600000000093e-03
-2.431192500000000159e-03
-1.281390000000000110e-05
0.000000000000000000e+00
-3.504450400000000236e-03
-9.804387999999999818e-04
-1.283810000000000165e-05
1.133951500000000183e-03
2.162959700000000127e-03
4.637083000000000069e-04
-1.920887100000000063e-03
-3.342491900000000259e-03
-2.027887400000000055e-03
5.982482000000000771e-04
-1.285020000000000107e-05
2.031602100000000008e-03
2.358459399999999952e-03
-1.283810000000000165e-05
1.372333600000000091e-03
-1.286338900000000025e-03
-2.832452700000000299e-03
-2.810817900000000050e-03
-1.332573000000000091e-04
1.539567700000000171e-03
-1.285020000000000107e-05
2.449245700000000307e-03
1.932684600000000039e-03
-2.336836700000000360e-03
-1.281390000000000110e-05
-3.460224900000000332e-03
-3.164500900000000085e-03
-1.159301000000000168e-03
1.051719900000000095e-03
2.197226900000000347e-03
-1.283810000000000165e-05
6.168096000000000516e-04
-1.822284200000000038e-03
-3.195476900000000352e-03
4.894692000000000400e-04
1.943247900000000033e-03
-1.283810000000000165e-05
2.366445400000000143e-03
1.467427500000000051e-03
-1.149596800000000181e-03
-3.452868100000000030e-03
-2.834788000000000412e-04
-1.277760000000000113e-05
1.446784900000000094e-03
-1.280180000000000167e-05
0.000000000000000000e+00
2.448435000000000108e-03
1.962692600000000027e-03
-2.309648000000000083e-04
-2.247466100000000081e-03
-3.430422600000000016e-03
-3.177532600000000044e-03
-1.320473000000000176e-03
9.561057000000000843e-04
2.275804300000000297e-03
7.757673000000000086e-04
-1.720958800000000136e-03
-3.112035300000000077e-03
-1.277760000000000113e-05
-3.351808900000000264e-03
-2.294474600000000111e-03
3.854939000000000260e-04
1.857011200000000060e-03
2.365295900000000204e-03
-1.023526900000000170e-03
-2.654074500000000360e-03
-3.436012800000000280e-03
-1.289860000000000048e-05
-2.937625900000000005e-03
-4.519955000000000197e-04
2.417930900000000299e-03
-1.278970000000000055e-05
1.996790400000000160e-03
-6.711869999999999826e-05
-2.163685700000000066e-03
-3.380062400000000220e-03
-3.206318500000000273e-03
2.203724599999999992e-03
-1.285020000000000107e-05
8.984613000000000235e-04
-1.612942100000000056e-03
-3.034413800000000400e-03
-3.359347200000000443e-03
-1.288650000000000105e-05
-2.412510100000000123e-03
-1.287440000000000162e-05
2.568104000000000307e-04
1.764555100000000151e-03
2.370970800000000295e-03
1.649956000000000166e-03
-8.781212000000001129e-04
-3.436412100000000268e-03
-2.979068400000000217e-03
1.266361800000000192e-03
-1.276550000000000170e-05
2.397530300000000249e-03
-1.282600000000000053e-05
2.020808900000000113e-03
9.707830000000000192e-05
-2.068519200000000068e-03
-3.319284100000000071e-03
-3.213651100000000128e-03
-1.642224100000000105e-03
2.125764300000000141e-03
-1.285020000000000107e-05
-1.510830200000000184e-03
-2.944922200000000059e-03
-3.355330000000000118e-03
-1.281390000000000110e-05
-2.524943300000000081e-03
1.538152000000000041e-04
-1.280180000000000167e-05
1.675620100000000095e-03
2.370777200000000196e-03
1.734244600000000225e-03
-7.261694000000000612e-04
-2.471316100000000345e-03
-3.018248200000000353e-03
-7.638609000000000848e-04
1.190446400000000089e-03
-1.283810000000000165e-05
2.367824799999999983e-03
2.059674100000000087e-03
2.537732999999999916e-04
-3.266092500000000124e-03
-1.281390000000000110e-05
-3.235588400000000316e-03
6.867355000000000117e-04
2.059347400000000137e-03
2.265712900000000328e-03
1.170783899999999983e-03
-1.286230000000000050e-05
-1.389188900000000058e-03
-2.862400200000000255e-03
-2.626377600000000256e-03
1.984400000000000177e-05
-1.286230000000000050e-05
1.592299500000000098e-03
2.384365500000000006e-03
-2.383082900000000216e-03
-1.285020000000000107e-05
0.000000000000000000e+00
-3.404250300000000260e-03
-3.045703100000000333e-03
-9.313491000000000781e-04
1.111348700000000089e-03
2.330714100000000257e-03
2.087830799999999994e-03
-1.892464200000000020e-03
-3.199530400000000045e-03
-3.250919100000000152e-03
6.005714000000000755e-04
-1.283810000000000165e-05
0.000000000000000000e+00
1.984896100000000350e-03
2.285847300000000241e-03
1.300060300000000120e-03
-2.784439899999999971e-03
-1.283810000000000165e-05
-3.358718000000000120e-03
-1.105940000000000053e-04
1.511568300000000128e-03
5.799530000000000359e-05
3.171901259999999889e-02
-4.164215000000000516e-04
-2.305364600000000055e-03
-3.386983600000000299e-03
-3.080502700000000392e-03
-1.098667900000000093e-03
2.290118600000000046e-03
-1.280180000000000167e-05
2.117826699999999975e-03
-1.801702100000000112e-03
-3.264180700000000011e-03
-2.069535600000000156e-03
-1.278970000000000055e-05
0.000000000000000000e+00
4.942971000000000214e-04
1.908266800000000098e-03
2.299883300000000064e-03
1.405451300000000155e-03
-1.150758400000000126e-03
-2.700187600000000365e-03
-2.788541800000000122e-03
-2.551285000000000358e-04
-1.289860000000000048e-05
1.426710999999999995e-03
2.381074300000000053e-03
1.896796000000000072e-03
-2.656434000000000052e-04
-2.219224700000000348e-03
-3.099245600000000243e-03
-1.283810000000000165e-05
-1.256839100000000081e-03
9.534921000000000455e-04
2.228275500000000218e-03
7.238462000000000628e-04
1.965766000000000247e-04
-3.271779500000000004e-03
4.024581000000000490e-04
-1.283810000000000165e-05
0.000000000000000000e+00
1.826361900000000177e-03
2.309176100000000058e-03
-1.031718600000000033e-03
-2.618633600000000190e-03
-1.287440000000000162e-05
-2.861250700000000317e-03
-4.031962000000000480e-04
-1.282600000000000053e-05
1.347625400000000001e-03
2.372362300000000358e-03
1.943187400000000219e-03
-2.142474400000000251e-03
-3.323676400000000371e-03
-3.133040900000000004e-03
-1.418833900000000077e-03
8.738620000000000979e-04
2.181097600000000102e-03
2.175289600000000160e-03
8.400546000000000055e-04
-1.285020000000000107e-05
-1.610764100000000023e-03
-2.995584900000000227e-03
-3.291877600000000115e-03
-2.333243000000000036e-03
2.897829000000000203e-04
1.754911400000000194e-03
2.328838599999999946e-03
1.606843700000000182e-03
-8.929679000000000262e-04
-2.537720900000000127e-03
-3.379638900000000220e-03
-2.916729200000000351e-03
-5.517116000000000728e-04
2.371394300000000295e-03
5.655540000000000404e-05
-1.283810000000000165e-05
-2.061525399999999952e-03
-1.281390000000000110e-05
-3.285779200000000025e-03
-3.162105100000000158e-03
-1.582087100000000067e-03
2.123925100000000066e-03
2.212460800000000134e-03
1.002497100000000014e-03
-1.278970000000000055e-05
-2.934637199999999991e-03
-3.313923800000000142e-03
-1.285020000000000107e-05
-2.462725100000000278e-03
1.690696700000000018e-03
2.343298100000000203e-03
-1.280180000000000167e-05
1.700146800000000092e-03
-7.522690999999999970e-04
-2.466113100000000280e-03
-3.382712300000000061e-03
-2.974046900000000028e-03
-7.173969000000000092e-04
2.360165500000000176e-03
2.031723100000000070e-03
2.223859000000000285e-04
-1.984835600000000103e-03
-1.282600000000000053e-05
-3.199276300000000132e-03
-1.283810000000000165e-05
-1.732320700000000106e-03
7.106087999999999988e-04
2.247199899999999945e-03
-1.283810000000000165e-05
1.129946400000000082e-03
-1.402825600000000110e-03
-2.862751100000000219e-03
-2.578800400000000152e-03
-1.281390000000000110e-05
5.339730000000000458e-05
1.609469400000000010e-03
2.370402100000000220e-03
1.776171100000000034e-03
-6.092833999999999880e-04
-3.388048400000000411e-03
-3.018236100000000130e-03
-8.819690000000000255e-04
-1.281390000000000110e-05
1.126715700000000160e-03
2.331924100000000010e-03
3.787783999999999986e-04
-1.901962700000000119e-03
-3.198066300000000379e-03
-3.230143400000000126e-03
-1.890346700000000236e-03
-1.281390000000000110e-05
6.227749000000000739e-04
1.994092100000000294e-03
1.267099900000000137e-03
-1.285020000000000107e-05
-1.299443200000000020e-03
-3.341802200000000122e-03
-2.686744500000000195e-03
-1.283810000000000165e-05
-7.834750000000000839e-05
1.523099600000000185e-03
2.371769400000000270e-03
1.837554400000000060e-03
-4.534354000000000531e-04
-3.374363300000000118e-03
-1.282600000000000053e-05
-3.063054500000000121e-03
-1.054696500000000103e-03
2.111970300000000009e-03
-1.281390000000000110e-05
0.000000000000000000e+00
5.328235000000000393e-04
-1.814128800000000194e-03
-3.251294200000000127e-03
-1.281390000000000110e-05
-2.035655600000000134e-03
5.173718000000000327e-04
2.300318900000000288e-03
-1.286230000000000050e-05
1.380005000000000120e-03
-1.167867800000000006e-03
-2.706515900000000356e-03
-3.359964300000000108e-03
-2.188527000000000061e-04
-1.286230000000000050e-05
1.447196300000000088e-03
1.892040700000000020e-03
-1.285020000000000107e-05
-2.993539999999999938e-04
2.495530620000000269e-02
-3.092118700000000275e-03
-1.217405200000000031e-03
9.737596000000000272e-04
2.250188599999999959e-03
2.145753499999999980e-03
-3.078953900000000032e-03
-2.182017200000000139e-03
-1.283810000000000165e-05
0.000000000000000000e+00
0.000000000000000000e+00
4.319095000000000226e-04
1.853127100000000020e-03
2.316944300000000137e-03
1.497810600000000015e-03
-1.058096600000000111e-03
-2.637461200000000301e-03
-3.362214900000000395e-03
-3.631815000000000260e-04
1.374063900000000111e-03
-1.281390000000000110e-05
2.387317900000000218e-03
1.947277200000000147e-03
-1.331363000000000013e-04
-2.158954600000000026e-03
-3.132193900000000003e-03
-1.377669700000000007e-03
8.977474000000000912e-04
-1.283810000000000165e-05
2.206943200000000341e-03
2.182634300000000239e-03
8.215416000000000558e-04
-1.630922700000000166e-03
-3.016493700000000104e-03
-3.295749600000000366e-03
-2.306816600000000366e-03
3.133053000000000443e-04
1.783043900000000088e-03
2.339014700000000176e-03
1.592093800000000210e-03
-2.559742900000000140e-03
-3.381562800000000122e-03
-2.905984400000000047e-03
-5.101481000000000158e-04
-1.281390000000000110e-05
2.385188299999999994e-03
1.987340300000000302e-03
2.193730000000000086e-05
-2.081756600000000349e-03
-3.301485000000000270e-03
-3.161838900000000022e-03
-1.285020000000000107e-05
8.187223000000000200e-04
-1.281390000000000110e-05
2.144833899999999943e-03
2.216465900000000235e-03
9.687744000000000737e-04
-1.538394000000000003e-03
-2.951540900000000200e-03
-2.443244100000000266e-03
-1.288650000000000105e-05
2.156704000000000010e-04
1.707140600000000208e-03
2.349251300000000219e-03
-7.859797000000000398e-04
-2.484759200000000081e-03
-1.283810000000000165e-05
-3.379856700000000332e-03
-2.968747100000000347e-03
1.225972000000000086e-03
2.035752400000000184e-03
-1.283810000000000165e-05
1.878888000000000162e-04
-1.286230000000000050e-05
-2.004316600000000115e-03
-3.201563200000000220e-03
-1.694919600000000014e-03
7.335625000000000565e-04
-1.283810000000000165e-05
2.081829199999999953e-03
2.242819700000000301e-03
1.097203799999999993e-03
-1.428961600000000064e-03
-2.880550200000000019e-03
-3.338523100000000392e-03
-2.548562500000000047e-03
8.018670000000000257e-05
1.623202900000000112e-03
2.367643300000000107e-03
-6.393519000000000068e-04
-2.408698600000000120e-03
-3.393711200000000278e-03
-3.007830100000000000e-03
-8.393649000000000856e-04
1.142469899999999997e-03
2.341846100000000326e-03
3.427203999999999993e-04
-1.277760000000000113e-05
-1.923561200000000132e-03
-1.285020000000000107e-05
-3.209041000000000150e-03
-3.219495400000000306e-03
-1.855801200000000090e-03
6.441798000000000966e-04
2.007099600000000240e-03
2.260013800000000225e-03
1.230073900000000020e-03
-1.330866900000000084e-03
-2.805893200000000344e-03
-3.330815400000000127e-03
-2.655695900000000324e-03
-4.094640000000000492e-05
1.543693800000000118e-03
2.360008200000000313e-03
1.821570300000000106e-03
-4.911511000000000349e-04
-2.322474000000000153e-03
-3.362118100000000345e-03
-3.040972000000000293e-03
-1.001698500000000039e-03
1.070293400000000075e-03
2.291328600000000233e-03
2.092307800000000120e-03
4.748040000000000572e-04
-1.835812000000000034e-03
-3.235201200000000117e-03
-1.285020000000000107e-05
-1.987412900000000340e-03
5.361631000000000166e-04
1.927578400000000023e-03
2.270008400000000145e-03
-1.211911800000000034e-03
-2.724085100000000256e-03
-1.280180000000000167e-05
-3.345613700000000124e-03
1.452592900000000036e-03
2.361097200000000004e-03
1.852001800000000094e-03
-3.507911000000000167e-04
-1.278970000000000055e-05
-2.240206100000000262e-03
-3.057137600000000340e-03
-1.156953600000000049e-03
-1.283810000000000165e-05
9.842502999999999842e-04
-1.285020000000000107e-05
2.234821600000000321e-03
2.108049900000000167e-03
6.267558000000000547e-04
-1.742726700000000019e-03
-3.068402700000000261e-03
-3.234983400000000005e-03
-2.124239700000000227e-03
2.271363599999999972e-03
1.435168899999999994e-03
-1.281390000000000110e-05
-1.093743200000000170e-03
-1.287440000000000162e-05
-2.631701600000000384e-03
-3.325213100000000074e-03
-2.796757700000000214e-03
1.364880000000000173e-03
2.337925700000000051e-03
-1.285020000000000107e-05
1.896215200000000208e-03
-3.298871400000000231e-03
-1.285020000000000107e-05
-3.081470700000000021e-03
-1.317024500000000143e-03
-1.278970000000000055e-05
2.168065900000000143e-03
-1.282600000000000053e-05
2.130059799999999958e-03
7.540599000000000477e-04
-2.992874500000000139e-03
-3.241444800000000282e-03
-2.235487100000000012e-03
-1.285020000000000107e-05
2.281793800000000115e-03
-1.289860000000000048e-05
1.515803300000000131e-03
-9.504671000000000126e-04
-2.547945400000000381e-03
-3.330404000000000350e-03
-2.848799800000000222e-03
-4.718516000000000073e-04
1.276380600000000124e-03
2.322752300000000079e-03
1.918067800000000135e-03
-3.897410000000000349e-05
-1.283810000000000165e-05
-2.074581299999999923e-03
-1.473247599999999999e-03
-1.281390000000000110e-05
0.000000000000000000e+00
8.109178000000000306e-04
2.104867600000000054e-03
9.059996000000000932e-04
-1.536312800000000020e-03
-2.918411100000000129e-03
-1.278970000000000055e-05
-3.244179400000000383e-03
2.324289000000000270e-04
2.288194700000000144e-03
-1.283810000000000165e-05
0.000000000000000000e+00
1.615495200000000063e-03
-8.191942000000000451e-04
-2.458018200000000250e-03
-3.311612700000000041e-03
-2.894622500000000077e-03
-6.156964000000000230e-04
2.331899899999999998e-03
-1.283810000000000165e-05
1.993946900000000220e-03
1.335114000000000038e-04
-1.980915200000000261e-03
-3.204309900000000110e-03
-3.138401200000000366e-03
-1.618447600000000059e-03
2.047392600000000080e-03
2.177794300000000360e-03
1.019981600000000087e-03
-1.281390000000000110e-05
-1.436923400000000026e-03
-2.846742800000000035e-03
-2.463826200000000192e-03
1.141393000000000068e-04
2.313628900000000172e-03
-1.285020000000000107e-05
-6.776120999999999967e-04
-2.382381100000000290e-03
-3.323131900000000308e-03
-2.934479900000000127e-03
-1.282600000000000053e-05
1.138997200000000168e-03
-1.281390000000000110e-05
2.301710400000000351e-03
2.695275000000000448e-04
-1.932115900000000181e-03
-3.197969500000000329e-03
-3.182542000000000010e-03
-1.796148200000000084e-03
-1.285020000000000107e-05
6.386863999999999909e-04
1.980177100000000100e-03
2.196319400000000099e-03
1.144647900000000029e-03
-2.804380700000000219e-03
-3.281278000000000319e-03
-2.578159100000000040e-03
-1.282600000000000053e-05
1.660119999999999955e-05
2.325571600000000006e-03
-5.563822000000000819e-04
-1.281390000000000110e-05
0.000000000000000000e+00
-2.339256700000000300e-03
-3.337591400000000132e-03
-3.007007300000000011e-03
1.071479200000000033e-03
2.269548600000000343e-03
-1.283810000000000165e-05
-1.868082700000000098e-03
-3.145697500000000420e-03
-1.283810000000000165e-05
0.000000000000000000e+00
-3.189088100000000113e-03
5.854706000000000320e-04
-1.285020000000000107e-05
1.943840800000000120e-03
2.231155299999999959e-03
-1.247776199999999988e-03
-1.285020000000000107e-05
-2.729602700000000048e-03
-3.306675900000000112e-03
-2.666368100000000158e-03
-1.396461000000000046e-04
1.449277500000000071e-03
2.304844300000000006e-03
1.771270600000000124e-03
-4.451106000000000138e-04
-3.335570700000000180e-03
-1.286230000000000050e-05
-3.012186100000000064e-03
1.003138400000000126e-03
2.217796900000000050e-03
-1.285020000000000107e-05
2.037555300000000024e-03
-1.801714200000000118e-03
-3.097745200000000341e-03
-1.291070000000000160e-05
-3.209113600000000188e-03
-2.056673300000000284e-03
4.675924000000000465e-04
2.206507600000000117e-03
1.340946200000000046e-03
-1.283810000000000165e-05
-1.168932600000000118e-03
-2.679980599999999980e-03
-3.317081900000000243e-03
-2.767112700000000196e-03
-2.964742000000000354e-04
1.340026600000000009e-03
2.262869399999999954e-03
1.807824700000000215e-03
-3.020281000000000094e-04
-3.046005600000000271e-03
-1.283810000000000165e-05
0.000000000000000000e+00
-1.238301900000000118e-03
9.254927000000001116e-04
2.156014300000000036e-03
-1.694314600000000138e-03
-1.285020000000000107e-05
-3.006898400000000172e-03
-3.201611600000000245e-03
-2.139292100000000137e-03
3.988281000000000313e-04
1.795724700000000083e-03
2.264188299999999980e-03
-1.286230000000000050e-05
1.466991900000000045e-03
-3.300008800000000381e-03
-1.281390000000000110e-05
-2.808228500000000023e-03
-4.253876000000000402e-04
2.261381100000000276e-03
-1.285020000000000107e-05
1.835545800000000114e-03
-2.133181600000000257e-03
-3.272130400000000400e-03
-1.285020000000000107e-05
0.000000000000000000e+00
-3.067422600000000409e-03
8.283176000000000601e-04
2.088992400000000155e-03
2.082930300000000300e-03
8.112082000000000711e-04
-1.281390000000000110e-05
-1.580659300000000203e-03
-3.196807900000000167e-03
-2.270371400000000331e-03
3.106554000000000411e-04
1.727613800000000078e-03
-1.277760000000000113e-05
2.273093900000000209e-03
1.568256800000000133e-03
-8.777340000000000229e-04
-2.464213399999999957e-03
-3.256376200000000130e-03
-5.087566000000000614e-04
-1.283810000000000165e-05
1.266640100000000118e-03
2.307433700000000032e-03
1.940827900000000094e-03
5.811630000000000463e-05
-3.048582900000000075e-03
-1.283810000000000165e-05
-1.500569400000000128e-03
7.866452000000000557e-04
2.071628900000000145e-03
2.150411999999999983e-03
-1.456924700000000088e-03
-2.830335200000000297e-03
-1.280180000000000167e-05
-3.196711100000000118e-03
-2.360189700000000189e-03
1.944954000000000149e-04
-1.287440000000000162e-05
1.648092600000000078e-03
2.293046800000000246e-03
1.643966500000000131e-03
-7.314329000000000490e-04
-2.393283200000000024e-03
-3.278325600000000107e-03
-2.859968100000000093e-03
-6.636124000000000840e-04
1.177402600000000124e-03
1.948644500000000198e-03
-1.286230000000000050e-05
-3.152243600000000090e-03
-3.091187000000000015e-03
-1.280180000000000167e-05
-1.656986100000000083e-03
7.121334000000000214e-04
2.024644600000000128e-03
-1.281390000000000110e-05
2.185623000000000253e-03
1.094541800000000146e-03
-2.783169400000000404e-03
-3.221165200000000294e-03
7.537090000000000033e-05
-1.282600000000000053e-05
1.566635400000000169e-03
-1.282600000000000053e-05
2.279143900000000274e-03
1.706850200000000059e-03
-6.147526000000000813e-04
-2.329189500000000343e-03
-2.915591800000000202e-03
1.119576699999999970e-03
-1.281390000000000110e-05
2.268556400000000268e-03
-1.285020000000000107e-05
2.016985300000000321e-03
3.415709000000000063e-04
-1.860435500000000080e-03
-3.104158200000000159e-03
-3.117419800000000019e-03
-1.789118100000000166e-03
6.393398000000000006e-04
2.217542800000000137e-03
-2.716329000000000399e-03
-3.240997100000000269e-03
-1.287440000000000162e-05
0.000000000000000000e+00
-2.566845600000000095e-03
-1.287440000000000162e-05
2.319775700000000287e-03
-1.283810000000000165e-05
0.000000000000000000e+00
1.764446200000000095e-03
-4.862627000000000225e-04
-3.279124200000000083e-03
-1.285020000000000107e-05
-2.942853100000000083e-03
-9.587193000000000147e-04
1.063795699999999997e-03
2.063546100000000338e-03
5.080548000000000269e-04
-3.047554400000000198e-03
-3.134142000000000351e-03
-1.939557400000000093e-03
-1.285020000000000107e-05
0.000000000000000000e+00
5.460608999999999949e-04
1.893650000000000194e-03
2.221269600000000313e-03
1.322820400000000078e-03
-1.176241000000000179e-03
-3.243477600000000023e-03
-1.283810000000000165e-05
-2.669163200000000073e-03
-1.663992000000000043e-04
1.434213000000000154e-03
2.317004799999999951e-03
1.830802600000000068e-03
-3.247277000000000453e-04
-2.190027400000000343e-03
-1.148302100000000167e-03
9.668021000000000384e-04
-1.283810000000000165e-05
2.182827900000000338e-03
2.052595600000000145e-03
-1.283810000000000165e-05
6.042255999999999972e-04
-1.726839400000000115e-03
-3.188555700000000274e-03
-2.094026000000000134e-03
4.180671000000000278e-04
1.789299600000000042e-03
-1.287440000000000162e-05
2.211674299999999947e-03
1.381009299999999985e-03
-1.078364100000000093e-03
-2.598644400000000351e-03
-2.742876400000000131e-03
-1.283810000000000165e-05
-3.246308999999999957e-04
2.290336400000000158e-03
1.837760100000000165e-03
-1.275340000000000058e-05
-1.893529000000000078e-04
-2.106658400000000105e-03
-2.989256600000000236e-03
-1.275630400000000173e-03
8.963196000000000097e-04
2.134633600000000134e-03
2.084938900000000029e-03
-1.282600000000000053e-05
7.642965000000000913e-04
-1.585475100000000069e-03
-2.895820400000000041e-03
-2.164133400000000079e-03
-1.283810000000000165e-05
7.682048000000000348e-04
2.236709199999999988e-03
1.502215000000000104e-03
-9.309377000000000841e-04
-2.468049099999999971e-03
-3.209512900000000175e-03
-2.745937700000000183e-03
-4.249520000000000337e-04
1.284039900000000147e-03
2.299762300000000002e-03
1.911993600000000057e-03
3.109700000000000059e-06
-1.983686100000000164e-03
-3.122066200000000232e-03
-2.974288900000000152e-03
-1.378371500000000150e-03
8.535824000000001100e-04
2.103318800000000127e-03
2.142559100000000077e-03
9.097385000000000584e-04
-1.473840500000000086e-03
-2.816662200000000227e-03
-2.259299900000000076e-03
-1.283810000000000165e-05
2.642518999999999966e-04
1.686764200000000170e-03
1.621024900000000079e-03
-1.280180000000000167e-05
-7.400239000000000079e-04
-3.176915500000000378e-03
-1.283810000000000165e-05
-5.229136000000000548e-04
1.265514800000000191e-03
-1.283810000000000165e-05
2.341785600000000078e-03
1.985162300000000053e-03
-1.882251800000000206e-03
-1.276550000000000170e-05
-2.968771300000000359e-03
-1.499964400000000034e-03
-1.285020000000000107e-05
8.050009000000000331e-04
2.086390900000000340e-03
2.200578600000000114e-03
1.082357099999999971e-03
-2.713521800000000261e-03
-3.105344000000000333e-03
-2.341350000000000289e-03
2.081079000000000273e-04
-1.277760000000000113e-05
2.325753100000000316e-03
1.731098600000000130e-03
-1.285020000000000107e-05
-3.175100500000000315e-03
-1.282600000000000053e-05
-6.817261000000000458e-04
-1.283810000000000165e-05
1.194766100000000135e-03
-1.280180000000000167e-05
2.030803500000000032e-03
-1.820916900000000204e-03
-3.035877900000000067e-03
-3.027928200000000111e-03
-1.283810000000000165e-05
-1.662394800000000037e-03
-1.280180000000000167e-05
7.108508000000000144e-04
2.013524700000000282e-03
2.225177900000000365e-03
1.188752400000000087e-03
-1.261618600000000145e-03
-2.682400600000000353e-03
-3.165009100000000346e-03
-2.475442200000000075e-03
5.279230000000000614e-05
2.339087300000000213e-03
1.777744100000000190e-03
-4.949384000000000249e-04
-2.233127600000000320e-03
-3.224710500000000160e-03
-8.499645000000000984e-04
-1.278970000000000055e-05
1.123097800000000040e-03
2.306731900000000106e-03
-1.283810000000000165e-05
2.076553600000000284e-03
4.703512000000000513e-04
-1.767205000000000208e-03
-3.086782600000000359e-03
-1.281390000000000110e-05
-1.838316700000000017e-03
6.290064000000000159e-04
1.979209100000000037e-03
2.276300400000000335e-03
-1.169114099999999995e-03
-2.641393700000000365e-03
-3.208944200000000101e-03
-5.956830000000000360e-05
1.535344800000000174e-03
-1.285020000000000107e-05
0.000000000000000000e+00
1.901430300000000063e-03
-2.198436900000000100e-03
-2.991567700000000336e-03
-1.287440000000000162e-05
-1.050824500000000069e-03
-1.285020000000000107e-05
1.066191500000000141e-03
2.301190100000000301e-03
-1.287440000000000162e-05
2.160975299999999977e-03
-1.715162900000000200e-03
-3.036289300000000278e-03
-1.281390000000000110e-05
-3.182408900000000158e-03
5.306455000000000069e-04
2.341216900000000004e-03
1.464571900000000105e-03
-1.280180000000000167e-05
-1.060782799999999970e-03
-2.327919000000000234e-04
-1.287440000000000162e-05
0.000000000000000000e+00
2.413417600000000371e-03
1.939424300000000025e-03
-1.285020000000000107e-05
-1.908169999999999994e-04
-1.278970000000000055e-05
-2.138227300000000025e-03
-1.285020000000000107e-05
-3.279293600000000170e-03
-3.039495800000000404e-03
-1.225475900000000049e-03
2.253007900000000320e-03
-1.288650000000000105e-05
2.182767400000000090e-03
-1.628877800000000202e-03
-1.281390000000000110e-05
-3.205544100000000309e-03
-1.278970000000000055e-05
-2.159595900000000138e-03
4.418678000000000319e-04
1.874241600000000219e-03
2.360843100000000090e-03
-9.477567000000000326e-04
-2.546771699999999996e-03
-2.821236000000000403e-03
2.423012900000000303e-03
-1.278970000000000055e-05
2.013185900000000108e-03
-2.285690000000000134e-05
-1.281390000000000110e-05
0.000000000000000000e+00
0.000000000000000000e+00
-3.284266700000000334e-03
-3.124982300000000209e-03
-1.282600000000000053e-05
-1.405632800000000031e-03
9.145543000000000335e-04
2.239020300000000088e-03
2.269427600000000281e-03
9.368425000000000754e-04
-1.560307100000000178e-03
-2.983545400000000344e-03
-3.311056100000000189e-03
-2.340152100000000325e-03
3.282730000000000196e-04
2.451919800000000160e-03
1.720535300000000135e-03
-8.198113000000000362e-04
-2.521531100000000067e-03
-3.392452800000000067e-03
-2.924545800000000022e-03
-5.229378000000000672e-04
1.352876800000000091e-03
-1.282600000000000053e-05
2.106017099999999993e-03
1.463978999999999964e-04
-2.033925300000000332e-03
-1.281390000000000110e-05
-3.297528300000000193e-03
-3.185954200000000024e-03
-1.571838400000000018e-03
8.601406000000001110e-04
2.229836399999999934e-03
2.337816800000000212e-03
1.110574300000000125e-03
-1.465418900000000106e-03
-2.929192200000000235e-03
-3.331964900000000066e-03
-2.480391100000000227e-03
2.326588000000000094e-04
1.780611800000000142e-03
2.466572900000000082e-03
1.818714700000000160e-03
-6.853319000000000511e-04
-2.451980299999999974e-03
-3.392186600000000364e-03
-2.992838200000000337e-03
1.288359600000000193e-03
-1.287440000000000162e-05
2.475284900000000211e-03
3.113209000000000028e-04
-1.956122300000000345e-03
-3.223996600000000011e-03
-1.727589600000000065e-03
7.797482000000000978e-04
-1.288650000000000105e-05
2.177346600000000347e-03
-1.286230000000000050e-05
2.380868600000000165e-03
-1.349525100000000108e-03
-1.283810000000000165e-05
-2.852599200000000002e-03
-3.349909200000000375e-03
-2.574480700000000323e-03
1.094929000000000101e-04
1.712029000000000111e-03
2.511306600000000246e-03
-5.287579000000000150e-04
-2.362525000000000302e-03
-3.399567600000000245e-03
-1.278970000000000055e-05
-3.027165900000000371e-03
-8.408411000000000834e-04
1.224519999999999992e-03
2.218135700000000224e-03
-1.281390000000000110e-05
-1.849835900000000068e-03
-1.278970000000000055e-05
-3.188749300000000373e-03
-3.231922100000000388e-03
7.040264000000000938e-04
-1.280180000000000167e-05
2.133060600000000195e-03
2.427405200000000169e-03
1.402002800000000122e-03
-1.226831100000000093e-03
-2.766265700000000195e-03
-3.343798700000000061e-03
-2.677560600000000041e-03
6.921200000000000751e-06
1.657905700000000121e-03
2.535010500000000038e-03
1.999077300000000248e-03
-3.532474000000000291e-04
-2.267673100000000032e-03
-3.064591200000000258e-03
1.177366300000000105e-03
-1.287440000000000162e-05
2.463499500000000241e-03
2.299278300000000188e-03
-1.285020000000000107e-05
6.684161000000000529e-04
-3.107219500000000210e-03
-1.278970000000000055e-05
-3.236992000000000168e-03
-1.985174400000000276e-03
6.367020000000000578e-04
2.087104800000000055e-03
2.478672900000000213e-03
1.535308500000000156e-03
-1.084305200000000103e-03
-2.675043800000000051e-03
-3.340422800000000282e-03
-2.725391900000000058e-03
-9.947410000000001039e-05
1.625828600000000157e-03
2.611010600000000185e-03
2.110736100000000243e-03
-2.144011099999999954e-03
-1.287440000000000162e-05
-3.315145900000000118e-03
-3.051765200000000188e-03
-1.114446300000000159e-03
1.135669699999999980e-03
2.464479600000000093e-03
-1.623118200000000068e-03
-3.027976600000000136e-03
-3.241360100000000022e-03
-1.282600000000000053e-05
0.000000000000000000e+00
-2.117342700000000161e-03
5.704666000000000381e-04
2.053539400000000195e-03
2.530146300000000147e-03
1.694980100000000045e-03
-2.578812500000000375e-03
-3.333126500000000228e-03
-1.286230000000000050e-05
-2.812681300000000138e-03
-2.423872000000000092e-04
2.594953899999999977e-03
-1.281390000000000110e-05
2.157587299999999975e-03
6.921200000000000751e-06
-2.085798000000000253e-03
-3.300480700000000406e-03
-3.116742200000000105e-03
1.048682800000000056e-03
2.395328099999999988e-03
2.405625200000000279e-03
-1.283810000000000165e-05
9.950919000000001211e-04
-1.538757000000000189e-03
-2.974942300000000053e-03
-3.275736200000000081e-03
-2.253528199999999936e-03
4.572106000000000369e-04
1.973727800000000046e-03
2.562029800000000229e-03
1.795543200000000207e-03
-7.973900000000000345e-04
-2.504046599999999994e-03
-2.878940900000000278e-03
-4.036923000000000312e-04
-1.286230000000000050e-05
1.474905300000000198e-03
2.607840400000000294e-03
2.202853399999999979e-03
1.614624000000000213e-04
-2.011649199999999971e-03
-3.291466200000000338e-03
-1.481862800000000079e-03
-1.277760000000000113e-05
9.461353000000000688e-04
2.334392499999999974e-03
2.416188500000000274e-03
1.125348400000000110e-03
-1.456101900000000100e-03
-2.923940800000000145e-03
-3.292615700000000277e-03
-2.391867499999999949e-03
3.567080000000000142e-04
1.912441300000000070e-03
2.578147000000000251e-03
1.905725800000000096e-03
-6.642053000000000627e-04
-2.421197900000000239e-03
-3.349655100000000028e-03
-2.929591500000000223e-03
-5.473435000000000019e-04
1.413122700000000185e-03
2.594711900000000286e-03
2.263462300000000042e-03
3.424663000000000316e-04
-1.926041700000000103e-03
-3.226331900000000124e-03
-3.170962300000000362e-03
-1.600406500000000135e-03
9.087826000000001105e-04
2.307808800000000007e-03
1.276392700000000130e-03
-1.286230000000000050e-05
-1.337013699999999982e-03
-2.846186200000000183e-03
-3.313512400000000364e-03
-2.492043400000000346e-03
1.828176900000000023e-03
-1.285020000000000107e-05
2.591977300000000185e-03
1.962063400000000138e-03
-2.357394600000000274e-03
-2.987477900000000408e-03
-1.280180000000000167e-05
-7.389107000000000878e-04
-1.281390000000000110e-05
1.304573600000000048e-03
2.541617099999999956e-03
2.253237800000000221e-03
-3.209210400000000237e-03
-3.213227600000000128e-03
-1.282600000000000053e-05
0.000000000000000000e+00
-1.783818300000000051e-03
2.208564600000000305e-03
2.456590399999999952e-03
-1.286230000000000050e-05
1.377851200000000101e-03
-1.269858700000000033e-03
-2.819179000000000216e-03
-3.358911600000000219e-03
-2.662290400000000019e-03
1.695948100000000108e-03
2.538265400000000189e-03
1.984327400000000276e-03
-1.283810000000000165e-05
-4.216971000000000456e-04
-2.316593400000000174e-03
-3.389343100000000424e-03
-3.062885100000000034e-03
-9.234357000000000329e-04
1.207834100000000112e-03
2.470057700000000134e-03
2.270722300000000294e-03
5.869468000000000298e-04
-1.814528100000000182e-03
-3.170744500000000250e-03
-3.275336900000000093e-03
-1.962644200000000002e-03
6.519964000000000922e-04
2.087600900000000093e-03
2.436516500000000286e-03
1.452290400000000098e-03
-2.758291800000000227e-03
-1.283810000000000165e-05
-3.394001600000000427e-03
-2.758110300000000351e-03
-1.179387000000000030e-04
1.578336100000000096e-03
1.985041299999999991e-03
-2.267334300000000292e-03
-1.280180000000000167e-05
0.000000000000000000e+00
-3.402302200000000346e-03
-3.104726900000000234e-03
-1.117967400000000012e-03
1.091153800000000144e-03
2.386095800000000242e-03
2.250067600000000331e-03
6.987266000000000874e-04
-1.735188400000000058e-03
-3.108477900000000422e-03
-3.267859100000000162e-03
-2.100039699999999964e-03
5.518568000000000388e-04
1.995181099999999985e-03
2.431676499999999973e-03
1.551086900000000005e-03
-1.063674700000000152e-03
-2.652549900000000013e-03
-3.352776900000000327e-03
-2.257497000000000182e-04
-1.286230000000000050e-05
1.496685300000000088e-03
2.488558600000000294e-03
-1.453451999999999988e-04
-2.163927700000000190e-03
-1.281390000000000110e-05
-3.331456700000000239e-03
-3.103117600000000059e-03
-1.261509700000000090e-03
1.012140799999999971e-03
2.318360000000000212e-03
2.272404200000000072e-03
-1.636888000000000188e-03
-1.287440000000000162e-05
-3.024649100000000382e-03
-3.275760400000000093e-03
-2.217760600000000248e-03
4.421582000000000181e-04
1.913699700000000064e-03
2.433902900000000247e-03
1.648153100000000109e-03
-9.143486000000000365e-04
-3.346630100000000212e-03
-2.841430900000000131e-03
-1.278970000000000055e-05
-3.713974000000000095e-04
1.439609600000000102e-03
2.516606400000000361e-03
2.088266400000000217e-03
4.777080000000000009e-05
-2.049594800000000341e-03
-3.097950900000000229e-03
-1.385643600000000192e-03
-1.278970000000000055e-05
9.585620000000000425e-04
2.295140100000000235e-03
2.324119600000000129e-03
9.985646000000001667e-04
-1.517485200000000126e-03
-2.947209100000000147e-03
-3.277514900000000342e-03
-2.347387900000000131e-03
3.410506000000000106e-04
1.843229300000000150e-03
2.459881600000000338e-03
1.758819700000000029e-03
-7.741822000000000634e-04
-2.461575600000000339e-03
-3.329702200000000424e-03
-2.895590500000000140e-03
1.366005300000000099e-03
2.490337300000000122e-03
-1.281390000000000110e-05
2.039213000000000223e-04
-1.983758700000000201e-03
-3.228195300000000212e-03
-1.282600000000000053e-05
-3.144693200000000122e-03
-1.555648600000000175e-03
8.798878000000000428e-04
2.230114700000000293e-03
2.361895799999999979e-03
1.144914100000000165e-03
-1.412844400000000042e-03
-2.865945500000000121e-03
-3.278870100000000169e-03
-2.445446300000000094e-03
1.777562600000000097e-03
2.486864600000000293e-03
1.835678900000000183e-03
-1.283810000000000165e-05
-6.344030000000000719e-04
-2.395969400000000100e-03
-3.352498600000000401e-03
-6.846059000000000042e-04
-1.281390000000000110e-05
1.289061400000000119e-03
2.165960499999999931e-03
-1.283810000000000165e-05
-1.906197700000000122e-03
-3.197473400000000292e-03
-1.278970000000000055e-05
-3.171494700000000201e-03
-1.715852600000000120e-03
7.824828000000000902e-04
2.169154900000000268e-03
2.378593800000000300e-03
1.275243200000000191e-03
-1.311398000000000078e-03
-2.570427200000000197e-03
-1.283810000000000165e-05
1.705652300000000095e-03
2.496677700000000336e-03
-1.287440000000000162e-05
1.919362500000000148e-03
-1.286230000000000050e-05
-4.899048000000000465e-04
-2.999904600000000057e-03
-8.518279000000000779e-04
-1.289860000000000048e-05
1.226080900000000142e-03
2.453020900000000074e-03
-1.280180000000000167e-05
2.227005000000000217e-03
5.207114000000000100e-04
-1.827632400000000178e-03
-3.215623400000000055e-03
-1.868433600000000061e-03
-1.287440000000000162e-05
2.116761900000000297e-03
-1.277760000000000113e-05
1.416038800000000162e-03
-1.281390000000000110e-05
-1.188643500000000032e-03
-2.737854900000000376e-03
-3.325854400000000186e-03
-2.669163200000000073e-03
1.636936400000000213e-03
2.536462500000000349e-03
1.982379299999999928e-03
-2.257484900000000013e-03
-1.285020000000000107e-05
0.000000000000000000e+00
-1.013774300000000158e-03
-1.282600000000000053e-05
0.000000000000000000e+00
1.156977800000000061e-03
2.440279600000000264e-03
6.867476000000000179e-04
-3.098737400000000416e-03
-1.289860000000000048e-05
0.000000000000000000e+00
-3.233180500000000165e-03
-2.015073500000000208e-03
6.157569000000000540e-04
2.063425100000000276e-03
1.547844100000000077e-03
-1.077057300000000073e-03
-2.669901300000000234e-03
-3.341015700000000369e-03
-1.283810000000000165e-05
-2.765467100000000220e-03
-1.564167000000000096e-04
1.567240400000000046e-03
2.537720900000000127e-03
2.057653400000000136e-03
-1.626603000000000120e-04
-3.325539800000000025e-03
-1.285020000000000107e-05
-3.088706500000000261e-03
1.079634600000000094e-03
2.319158600000000188e-03
-1.281390000000000110e-05
0.000000000000000000e+00
8.359769000000000835e-04
-3.037039500000000228e-03
-1.288650000000000105e-05
-3.266709600000000224e-03
5.138990999999999872e-04
-1.286230000000000050e-05
1.999246700000000335e-03
2.487989900000000219e-03
-9.383671000000000980e-04
-3.355826100000000155e-03
-1.281390000000000110e-05
-2.827576400000000184e-03
-1.282600000000000053e-05
-3.016167000000000153e-04
1.506316900000000038e-03
2.564437700000000379e-03
2.112042900000000046e-03
-2.097861700000000149e-03
-3.318788000000000033e-03
-1.283810000000000165e-05
-3.129386700000000299e-03
1.010071699999999994e-03
-1.283810000000000165e-05
2.358677200000000064e-03
2.368018400000000082e-03
-1.551099000000000011e-03
-3.307123600000000125e-03
-1.287440000000000162e-05
-2.313386900000000048e-03
-1.287440000000000162e-05
1.932926600000000163e-03
2.520986600000000005e-03
1.771972400000000050e-03
-1.281390000000000110e-05
-8.258734000000001081e-04
-3.395199500000000391e-03
-1.278970000000000055e-05
-2.932253500000000287e-03
2.555507900000000138e-03
-1.288650000000000105e-05
2.173232599999999973e-03
-3.293063400000000290e-03
-1.282600000000000053e-05
-3.180424500000000008e-03
-1.285020000000000107e-05
9.357051000000000344e-04
-1.281390000000000110e-05
2.411711500000000147e-03
1.131700900000000114e-03
-1.283810000000000165e-05
-1.462696400000000011e-03
-2.930244900000000124e-03
-3.325007400000000186e-03
-2.437387700000000299e-03
2.948528000000000173e-04
1.859225500000000111e-03
2.543190100000000328e-03
-1.287440000000000162e-05
1.861814900000000137e-03
-2.446329600000000330e-03
-3.392852100000000055e-03
-2.963181100000000096e-03
-1.282600000000000053e-05
-6.282925000000000836e-04
2.553051599999999963e-03
-1.283810000000000165e-05
3.316125999999999970e-04
-1.943502000000000163e-03
-1.283810000000000165e-05
-3.248039300000000410e-03
-1.664403400000000199e-03
8.434184000000001036e-04
2.249970800000000281e-03
2.444623500000000105e-03
1.279018400000000175e-03
-1.343269400000000153e-03
-2.860379500000000304e-03
-3.336296700000000118e-03
-1.278970000000000055e-05
-2.554176900000000323e-03
1.785355000000000188e-04
1.781761300000000081e-03
2.559863900000000202e-03
1.951463800000000125e-03
-5.274632000000000018e-04
-2.366723700000000069e-03
-3.388290400000000101e-03
-3.014763400000000301e-03
-7.963615000000000494e-04
1.280555100000000095e-03
2.517380800000000324e-03
2.266003300000000043e-03
4.920828000000000788e-04
-3.195041300000000129e-03
-3.248789500000000361e-03
-1.835570000000000127e-03
7.589604000000000662e-04
2.178871200000000261e-03
2.466258300000000354e-03
1.397174900000000032e-03
3.073400000000000085e-06
-3.645887300000000102e-03
-2.791615200000000397e-03
-3.364066200000000260e-03
-2.662931700000000131e-03
2.645060000000000049e-05
1.691459000000000192e-03
2.012750300000000318e-03
-1.287440000000000162e-05
-3.716757000000000437e-04
-3.396373200000000342e-03
-9.643458000000000802e-04
2.294498800000000123e-03
-1.280180000000000167e-05
6.416508999999999928e-04
-1.286230000000000050e-05
-1.779389700000000166e-03
-3.155075000000000240e-03
-1.278970000000000055e-05
0.000000000000000000e+00
6.495885000000000504e-04
-1.281390000000000110e-05
0.000000000000000000e+00
2.110820800000000070e-03
1.530262800000000171e-03
-1.281390000000000110e-05
-2.721822400000000180e-03
-1.285020000000000107e-05
-2.771432400000000025e-03
1.609251600000000115e-03
-1.276550000000000170e-05
2.574359700000000261e-03
2.076892400000000024e-03
-2.216828899999999988e-03
-1.278970000000000055e-05
0.000000000000000000e+00
-3.377037400000000404e-03
-1.144793100000000103e-03
-1.281390000000000110e-05
1.120036499999999989e-03
2.334646600000000322e-03
-1.283810000000000165e-05
8.001972000000000642e-04
-1.699614400000000036e-03
-3.307377700000000038e-03
-1.281390000000000110e-05
5.497393000000000375e-04
2.032231300000000331e-03
-1.005473700000000022e-03
-2.651412500000000297e-03
-1.281390000000000110e-05
-3.396494200000000404e-03
-2.849646800000000223e-03
-2.659458999999999977e-04
-1.283810000000000165e-05
1.525071900000000112e-03
2.575702800000000299e-03
2.106077600000000240e-03
-1.286230000000000050e-05
-6.404530000000000834e-05
-2.153666900000000134e-03
-3.156660100000000403e-03
-1.310248500000000139e-03
1.026539799999999980e-03
-1.277760000000000113e-05
2.374842800000000111e-03
9.255290000000000218e-04
-1.610401100000000054e-03
-3.045400600000000395e-03
-1.280180000000000167e-05
-3.327935600000000386e-03
-2.295079599999999987e-03
1.944917700000000239e-03
2.508680899999999984e-03
-8.876681000000000198e-04
-1.282600000000000053e-05
-2.580857400000000339e-03
-3.406827600000000063e-03
-2.916898600000000005e-03
-1.281390000000000110e-05
-4.116904000000000115e-04
2.557613300000000350e-03
2.155893299999999974e-03
-1.282600000000000053e-05
9.286750000000001167e-05
-3.321123300000000146e-03
-3.186825400000000037e-03
-1.469726500000000146e-03
-1.278970000000000055e-05
2.395086100000000297e-03
1.075556900000000171e-03
-1.515803300000000131e-03
-1.283810000000000165e-05
-2.970598400000000212e-03
-3.336599200000000057e-03
-2.406932000000000082e-03
3.323749000000000083e-04
-1.278970000000000055e-05
1.877895800000000141e-03
2.527581100000000133e-03
1.815145200000000065e-03
-2.489526600000000357e-03
-1.281390000000000110e-05
-3.402568400000000048e-03
-5.577132000000000053e-04
1.388946900000000151e-03
-1.287440000000000162e-05
2.561073900000000389e-03
2.194879500000000011e-03
2.558303000000000161e-04
-1.983226299999999928e-03
-3.274610900000000154e-03
-3.194049100000000054e-03
-1.619657600000000029e-03
8.633955000000000449e-04
2.250648400000000195e-03
1.191620100000000040e-03
-1.411513400000000010e-03
-2.898918000000000328e-03
-1.278970000000000055e-05
-3.344415800000000161e-03
-2.521506900000000054e-03
2.063413000000000161e-04
1.785246100000000133e-03
2.524229400000000366e-03
1.891157400000000217e-03
-3.396796700000000342e-03
-1.285020000000000107e-05
1.272581200000000128e-03
3.643794000000000438e-04
-3.263418400000000271e-03
-1.810898100000000056e-03
7.369384000000000524e-04
2.377662100000000039e-03
1.264619400000000166e-03
-2.840487100000000081e-03
-2.635501000000000163e-03
-1.281390000000000110e-05
4.466110000000000511e-05
2.489308800000000245e-03
-1.280180000000000167e-05
1.911086100000000025e-03
-4.756026000000000329e-04
-1.277760000000000113e-05
0.000000000000000000e+00
0.000000000000000000e+00
-2.332601700000000357e-03
-3.385882500000000385e-03
-3.030178800000000398e-03
-1.287440000000000162e-05
0.000000000000000000e+00
0.000000000000000000e+00
-9.008208000000000404e-04
-1.285020000000000107e-05
1.200803999999999977e-03
-1.281390000000000110e-05
2.444042700000000241e-03
2.204498999999999955e-03
-1.832363500000000218e-03
-3.231208200000000239e-03
-1.280180000000000167e-05
6.707393000000000513e-04
2.099398400000000286e-03
-1.281390000000000110e-05
0.000000000000000000e+00
2.428457900000000058e-03
1.434781700000000012e-03
-1.182762900000000053e-03
-2.735822100000000201e-03
-3.337724500000000417e-03
-2.693823000000000138e-03
-3.510210000000000397e-05
1.630813800000000110e-03
2.014613699999999973e-03
-2.911018000000000459e-04
-1.285020000000000107e-05
-2.231845000000000096e-03
-3.042327200000000120e-03
-1.031331400000000051e-03
-1.278970000000000055e-05
1.168545400000000137e-03
2.454763300000000099e-03
2.323454100000000005e-03
-1.285020000000000107e-05
7.401933000000000948e-04
-1.697472700000000022e-03
-3.061905000000000182e-03
-3.222000100000000072e-03
-2.012012200000000157e-03
6.394003000000000317e-04
2.088689900000000217e-03
2.513460400000000049e-03
1.596123100000000107e-03
-1.018045599999999962e-03
-2.625615300000000082e-03
-2.744473600000000083e-03
-1.474264000000000087e-04
-1.278970000000000055e-05
1.594041900000000124e-03
2.099846100000000299e-03
-1.281390000000000110e-05
-1.119129000000000038e-04
-2.138977499999999976e-03
-3.316682600000000255e-03
-3.067422600000000409e-03
-1.178975600000000063e-03
2.425227200000000354e-03
-1.281390000000000110e-05
8.826829000000000662e-04
-1.285020000000000107e-05
-3.015162700000000289e-03
-2.167194700000000130e-03
5.224054000000000111e-04
-1.285020000000000107e-05
2.008648400000000167e-03
2.516630600000000374e-03
1.705858000000000201e-03
-1.282600000000000053e-05
-9.083591000000001102e-04
-3.333731500000000104e-03
-1.281390000000000110e-05
-2.990515000000000014e-04
1.507914100000000207e-03
2.568539600000000096e-03
2.137912700000000298e-03
-2.076589900000000086e-03
-1.282600000000000053e-05
0.000000000000000000e+00
-3.289094600000000423e-03
-3.125865600000000011e-03
-1.371631800000000165e-03
9.967496000000001036e-04
2.323913900000000241e-03
2.355228700000000248e-03
9.841535000000001514e-04
-1.554644300000000093e-03
-2.981585200000000206e-03
-2.329056400000000058e-03
-1.277760000000000113e-05
1.896868600000000109e-03
-1.282600000000000053e-05
2.501106300000000005e-03
-7.916183000000000030e-04
-1.286230000000000050e-05
-2.497948200000000337e-03
-3.366716100000000100e-03
-2.901628399999999983e-03
-4.879325000000000112e-04
1.415034500000000080e-03
2.554068000000000050e-03
2.168574099999999970e-03
-2.005526600000000301e-03
-3.269988700000000387e-03
-3.160132800000000231e-03
9.063868000000000749e-04
2.281709100000000288e-03
2.395678999999999951e-03
-1.283810000000000165e-05
1.158006300000000155e-03
-1.422947900000000017e-03
-2.884446400000000282e-03
-3.292591500000000265e-03
-2.439202700000000362e-03
2.826923000000000174e-04
1.836041900000000152e-03
2.524955400000000304e-03
-1.278970000000000055e-05
-6.528797000000000029e-04
-2.416708800000000323e-03
-3.358947900000000021e-03
-1.281390000000000110e-05
-2.948273900000000260e-03
-6.382871000000000031e-04
1.351666800000000121e-03
2.230913300000000269e-03
-1.287440000000000162e-05
3.720387000000000130e-04
-1.905471700000000183e-03
-3.195682600000000241e-03
-3.172934600000000289e-03
8.471936000000000874e-04
-1.285020000000000107e-05
2.224451899999999992e-03
2.435161300000000025e-03
-1.321888700000000035e-03
-2.823353500000000404e-03
-1.281390000000000110e-05
-3.311903100000000190e-03
-2.552567600000000148e-03
1.438569000000000219e-04
1.752067900000000037e-03
-4.876179000000000125e-04
-2.324821400000000055e-03
-3.358669600000000095e-03
-8.101918000000000921e-04
1.256391400000000068e-03
2.499376000000000202e-03
2.244864600000000265e-03
-1.287440000000000162e-05
-1.824099200000000101e-03
-1.282600000000000053e-05
-3.153114800000000103e-03
-3.195634200000000216e-03
-1.834795600000000164e-03
7.442589000000000106e-04
2.462604100000000216e-03
-1.285020000000000107e-05
1.430256300000000078e-03
-1.281390000000000110e-05
-1.192902700000000047e-03
-2.734926700000000176e-03
-1.283810000000000165e-05
-3.311649000000000276e-03
-2.642845700000000242e-03
3.119379999999999939e-05
1.678778200000000196e-03
2.556270200000000312e-03
2.013294799999999947e-03
-3.429624000000000149e-04
-3.340459100000000084e-03
-3.027178000000000160e-03
-1.286230000000000050e-05
-9.819755000000001191e-04
1.193810200000000078e-03
2.296495300000000062e-03
6.840251000000000317e-04
-3.088222500000000013e-03
-3.227820200000000236e-03
-1.979596300000000236e-03
-1.287440000000000162e-05
0.000000000000000000e+00
6.411548000000000637e-04
2.075137900000000209e-03
2.464044000000000303e-03
1.529028600000000189e-03
-1.082816899999999990e-03
-2.667820100000000035e-03
-3.339817800000000406e-03
-2.735749500000000164e-03
-1.326765000000000095e-04
1.596219900000000157e-03
2.063679200000000189e-03
-1.776038000000000020e-04
-2.166263000000000303e-03
-1.283810000000000165e-05
-3.333937200000000427e-03
-3.060646600000000404e-03
2.422952400000000055e-03
-1.282600000000000053e-05
0.000000000000000000e+00
2.320066100000000003e-03
8.224854000000001060e-04
-1.648770200000000208e-03
-3.246732500000000174e-03
-2.129563700000000354e-03
-1.278970000000000055e-05
2.017348300000000073e-03
2.497452100000000300e-03
-1.281390000000000110e-05
1.657179700000000182e-03
-9.585136000000000177e-04
-2.621102000000000371e-04
-1.285020000000000107e-05
0.000000000000000000e+00
0.000000000000000000e+00
1.519106600000000090e-03
2.562901000000000241e-03
2.121178400000000176e-03
-1.335840000000000072e-05
-2.094860900000000345e-03
-3.103395900000000419e-03
-1.283810000000000165e-05
2.368308800000000231e-03
2.370244800000000356e-03
-1.281390000000000110e-05
-1.557754000000000170e-03
-2.974288900000000152e-03
-1.285020000000000107e-05
-3.267701800000000299e-03
-1.281390000000000110e-05
-2.258912700000000311e-03
4.364591000000000239e-04
1.938032800000000179e-03
2.509031800000000381e-03
1.747082700000000084e-03
-8.298906000000001075e-04
-2.513339399999999987e-03
-3.362819900000000271e-03
-2.873762100000000225e-03
-4.327202000000000045e-04
1.442199000000000128e-03
2.566071200000000132e-03
2.151900300000000096e-03
1.411101999999999962e-04
-2.019272199999999975e-03
-3.130161100000000262e-03
-1.281390000000000110e-05
-1.469194100000000090e-03
9.476115000000000666e-04
2.314354900000000111e-03
2.387741400000000219e-03
1.115414300000000004e-03
-1.453694000000000167e-03
-3.280806100000000294e-03
-2.390004100000000294e-03
-1.277760000000000113e-05
3.291563000000000388e-04
1.871071400000000112e-03
2.524531900000000304e-03
1.851953400000000069e-03
-6.941043999999999946e-04
-2.436516500000000286e-03
-3.350659400000000326e-03
-2.926034100000000134e-03
-5.799772000000000347e-04
1.371910100000000091e-03
2.539378600000000326e-03
2.205309700000000154e-03
3.072432000000000266e-04
-1.945571100000000140e-03
-3.222181600000000382e-03
-3.175463500000000067e-03
-1.633487900000000180e-03
8.548287000000000984e-04
2.231808700000000294e-03
-1.366416700000000093e-03
-2.847601900000000259e-03
-3.296294100000000428e-03
-2.499981000000000078e-03
-1.283810000000000165e-05
6.145638400000000279e-03
1.787666100000000072e-03
2.541689699999999993e-03
1.918067800000000135e-03
-5.470894000000000885e-04
-2.964766200000000258e-03
-1.278970000000000055e-05
1.297543500000000131e-03
2.527641600000000380e-03
2.237931299999999964e-03
4.721904000000000184e-04
-3.165965000000000185e-03
-1.281390000000000110e-05
0.000000000000000000e+00
-3.170913900000000337e-03
-1.287440000000000162e-05
-1.767640600000000214e-03
7.833903000000000134e-04
2.448592299999999972e-03
-1.285020000000000107e-05
1.392165500000000066e-03
-1.233788600000000190e-03
-2.758787900000000265e-03
-2.598341899999999979e-03
9.479140000000000862e-05
1.719942400000000048e-03
2.006409900000000104e-03
-1.280180000000000167e-05
0.000000000000000000e+00
-3.801699000000000072e-04
-2.263389700000000004e-03
-3.329194000000000164e-03
-9.054551000000000309e-04
1.226250300000000012e-03
2.479265800000000301e-03
2.286028800000000118e-03
6.310875999999999986e-04
-1.762885300000000162e-03
-3.107630900000000421e-03
-1.281390000000000110e-05
-3.214873200000000104e-03
6.715863000000000518e-04
-1.281390000000000110e-05
2.449427200000000183e-03
-1.282600000000000053e-05
-1.127586900000000173e-03
-2.691524000000000260e-03
-2.693242200000000273e-03
-6.250860000000000661e-05
1.638497300000000146e-03
-1.278970000000000055e-05
2.586665400000000281e-03
2.060315400000000199e-03
-2.042722000000000125e-04
-3.314504600000000439e-03
-1.283810000000000165e-05
-3.025423500000000345e-03
-1.065562300000000035e-03
-1.289860000000000048e-05
1.148907100000000044e-03
2.445845600000000081e-03
2.315080900000000049e-03
7.897307000000000111e-04
-1.663387000000000112e-03
-3.039278000000000292e-03
-2.059988700000000249e-03
-1.281390000000000110e-05
5.964816000000000389e-04
2.056407100000000147e-03
-9.836816000000001264e-04
-2.585649000000000194e-03
-3.310063900000000114e-03
-1.890504000000000154e-04
-1.281390000000000110e-05
2.581099400000000030e-03
2.118855200000000286e-03
-2.824140000000000035e-05
-1.281390000000000110e-05
-2.089343300000000118e-03
-3.057440100000000278e-03
-1.285020000000000107e-05
-1.234526700000000135e-03
-1.282600000000000053e-05
1.085841900000000023e-03
-1.278970000000000055e-05
2.396695400000000038e-03
2.369821300000000356e-03
9.453730000000001117e-04
-2.982274900000000343e-03
-1.277760000000000113e-05
-3.250314100000000275e-03
-2.213416699999999973e-03
4.840000000000000326e-08
1.735781300000000145e-03
-8.447131000000000084e-04
-2.510036100000000246e-03
-1.282600000000000053e-05
-3.325914900000000434e-03
-2.830226300000000025e-03
1.470779200000000035e-03
-1.280180000000000167e-05
2.568515400000000084e-03
2.137743300000000211e-03
1.038543000000000062e-04
-3.268439900000000026e-03
-3.097140200000000031e-03
-1.282600000000000053e-05
-1.396666699999999988e-03
9.974030000000000049e-04
2.403773899999999981e-03
-1.278970000000000055e-05
1.106653900000000067e-03
-1.446809100000000107e-03
-2.891004600000000174e-03
-3.242497500000000171e-03
3.873451999999999993e-04
1.909162200000000123e-03
-1.285020000000000107e-05
1.847766800000000091e-03
-1.285020000000000107e-05
-6.972504000000000896e-04
-2.424428600000000378e-03
-3.320203700000000108e-03
-2.880707500000000316e-03
1.409650000000000139e-03
-1.281390000000000110e-05
2.555725700000000249e-03
2.198739400000000038e-03
2.858383000000000039e-04
-3.209367700000000101e-03
-1.285020000000000107e-05
-3.133198200000000301e-03
-1.568619800000000102e-03
9.061206000000000468e-04
2.274933100000000284e-03
2.426413000000000094e-03
1.222450900000000016e-03
-2.834086200000000052e-03
-3.259994100000000034e-03
-1.291070000000000160e-05
1.826216700000000102e-03
-1.283810000000000165e-05
2.556609000000000052e-03
-5.557651000000000908e-04
-2.348561600000000082e-03
-1.285020000000000107e-05
-3.339345900000000381e-03
-1.286230000000000050e-05
-2.930160200000000298e-03
-6.893249000000000381e-04
1.325446100000000123e-03
2.535276700000000175e-03
2.218159900000000236e-03
4.225441000000000461e-04
-1.874846600000000096e-03
-3.189547900000000349e-03
-3.173249200000000016e-03
-1.731764100000000037e-03
8.080985000000001032e-04
2.212460800000000134e-03
1.367917099999999995e-03
-1.240262100000000039e-03
-1.285020000000000107e-05
-3.271888400000000276e-03
-1.280180000000000167e-05
-2.550534799999999973e-03
1.440263000000000003e-04
1.751354000000000105e-03
2.571358900000000024e-03
1.991696299999999933e-03
-4.075401000000000522e-04
-2.269863200000000070e-03
-3.320070600000000257e-03
-2.975051200000000326e-03
-8.431522000000000756e-04
1.258968700000000088e-03
2.510399099999999998e-03
2.290856700000000207e-03
6.083033000000000277e-04
-1.766249100000000152e-03
-3.181150500000000381e-03
-1.282600000000000053e-05
2.152178600000000021e-03
2.479519900000000214e-03
1.485988900000000026e-03
-2.690084100000000172e-03
-3.296366700000000032e-03
-2.648617400000000382e-03
-6.098400000000000768e-06
-1.283810000000000165e-05
1.667089600000000059e-03
-1.282600000000000053e-05
2.580494400000000153e-03
-1.286230000000000050e-05
2.046594000000000104e-03
-2.525996000000000404e-04
-2.194685900000000345e-03
-3.321050700000000109e-03
-3.008507700000000347e-03
-1.010991300000000032e-03
1.179919400000000113e-03
2.314959899999999987e-03
7.492925000000000973e-04
-1.678112700000000072e-03
-3.052842100000000090e-03
-1.281390000000000110e-05
-3.209512900000000175e-03
-2.014141799999999947e-03
2.078138700000000012e-03
-1.289860000000000048e-05
2.499981000000000078e-03
1.604496300000000063e-03
-1.012479600000000144e-03
-2.616346700000000101e-03
-3.315049100000000068e-03
-2.743602400000000070e-03
-1.496407000000000054e-04
2.576126300000000299e-03
-1.283810000000000165e-05
-1.008656000000000054e-04
-1.281390000000000110e-05
-2.129152300000000143e-03
-3.298714100000000368e-03
-1.185969400000000179e-03
-1.283810000000000165e-05
1.107767099999999987e-03
2.419056200000000226e-03
2.367522300000000045e-03
9.074516000000000786e-04
-2.988639500000000136e-03
-3.228388900000000311e-03
-1.280180000000000167e-05
5.321701000000000296e-04
-1.283810000000000165e-05
2.004921599999999991e-03
1.710153500000000017e-03
-8.910924000000000405e-04
-3.329169800000000151e-03
-2.808022800000000135e-03
-3.032986000000000102e-04
-1.283810000000000165e-05
1.516420400000000014e-03
-1.281390000000000110e-05
2.597361800000000127e-03
2.152420600000000146e-03
7.084550000000001144e-05
-2.037906199999999987e-03
-3.273086300000000240e-03
-3.077538200000000390e-03
-1.338756100000000008e-03
1.025983200000000128e-03
2.379513400000000337e-03
2.387184800000000367e-03
1.042886900000000120e-03
-1.496552200000000020e-03
-2.933995900000000313e-03
-3.255928500000000118e-03
-2.298697500000000324e-03
4.120534000000000349e-04
1.932829800000000113e-03
2.542500400000000191e-03
1.818133900000000079e-03
-7.527289000000000159e-04
-3.334663200000000365e-03
-1.283810000000000165e-05
-2.881566600000000106e-03
-4.585537000000000207e-04
1.436245800000000112e-03
2.576319899999999965e-03
2.196875999999999950e-03
2.365671000000000072e-04
-1.966395200000000190e-03
-3.230046600000000077e-03
-3.122380800000000393e-03
-1.505736100000000174e-03
9.570253000000000137e-04
2.441344400000000376e-03
1.198142000000000131e-03
-1.393157700000000141e-03
-2.864118400000000269e-03
-2.414930100000000062e-03
-1.278970000000000055e-05
1.864997200000000034e-03
-1.285020000000000107e-05
2.565357299999999983e-03
-1.286230000000000050e-05
1.905786300000000127e-03
-6.043224000000000469e-04
-2.384075100000000291e-03
-2.925925200000000295e-03
-1.291070000000000160e-05
-6.239607000000000313e-04
1.367106400000000013e-03
2.575376100000000348e-03
2.241658100000000139e-03
3.818518000000000021e-04
-3.207480100000000001e-03
-3.169812800000000423e-03
-1.280180000000000167e-05
-1.669872600000000184e-03
8.519610000000000377e-04
2.261066500000000114e-03
2.465326600000000094e-03
-1.280567200000000102e-03
-2.794858000000000325e-03
-1.281390000000000110e-05
-3.289893200000000399e-03
-2.537321600000000139e-03
1.780394000000000085e-04
2.586834800000000368e-03
-1.285020000000000107e-05
1.986747400000000215e-03
-4.588562000000000131e-04
-2.307203800000000131e-03
-3.352789000000000116e-03
-2.982117600000000045e-03
1.293078600000000010e-03
-1.286230000000000050e-05
2.295140100000000235e-03
5.608834000000000042e-04
-1.809688100000000086e-03
-3.208968400000000113e-03
-1.276550000000000170e-05
-1.842442800000000181e-03
-1.278970000000000055e-05
7.690276000000000230e-04
2.199538000000000014e-03
2.506744900000000293e-03
1.478136000000000120e-03
-2.729203400000000061e-03
-3.322744700000000110e-03
-2.654848900000000324e-03
-1.283810000000000165e-05
2.735810000000000154e-05
1.712863900000000106e-03
2.620073500000000277e-03
2.082990800000000114e-03
-2.717538999999999936e-04
-2.223072500000000153e-03
-3.364937400000000273e-03
-3.055201600000000215e-03
-1.006514300000000122e-03
1.195443700000000048e-03
2.349529600000000145e-03
-6.343884800000000428e-03
-1.706995400000000133e-03
-3.107909200000000347e-03
6.465514000000000113e-04
-1.283810000000000165e-05
0.000000000000000000e+00
2.131221400000000120e-03
2.556826800000000163e-03
1.623081900000000050e-03
-1.025039400000000078e-03
-2.656095200000000312e-03
-3.357689500000000243e-03
1.631261500000000123e-03
2.636202800000000089e-03
2.146915100000000142e-03
-1.105698000000000065e-04
-2.146019700000000117e-03
-1.286230000000000050e-05
0.000000000000000000e+00
-3.340495400000000319e-03
-3.095651900000000352e-03
-1.168146100000000149e-03
1.126909300000000043e-03
2.402321900000000104e-03
8.985339000000000607e-04
-3.036640200000000241e-03
-1.278970000000000055e-05
-3.278495000000000194e-03
-2.165561199999999943e-03
-1.275340000000000058e-05
5.549181000000000903e-04
2.055741600000000023e-03
2.563663299999999982e-03
1.733470200000000044e-03
-2.580010400000000339e-03
-3.366837100000000162e-03
-1.282600000000000053e-05
-2.848291600000000395e-03
-2.938122000000000259e-04
1.539761300000000053e-03
2.626776900000000244e-03
1.560900000000000166e-06
-2.069680800000000230e-03
-3.319211500000000033e-03
-3.128237200000000360e-03
1.050122700000000143e-03
-1.282600000000000053e-05
2.427538300000000020e-03
2.437218300000000212e-03
1.053014600000000108e-03
-1.504187300000000031e-03
-2.966085100000000283e-03
-3.294467000000000142e-03
-2.299145200000000337e-03
4.306390000000000218e-04
2.584995600000000292e-03
1.831516500000000217e-03
-7.750171000000000577e-04
-1.280180000000000167e-05
-2.480149100000000103e-03
-3.373407400000000278e-03
-2.909771700000000037e-03
-4.404400000000000047e-04
1.456513300000000094e-03
2.619662100000000066e-03
2.232462100000000196e-03
2.296822000000000284e-04
-1.981907400000000336e-03
-3.162238200000000009e-03
9.562388000000000441e-04
-1.285020000000000107e-05
0.000000000000000000e+00
2.354212300000000160e-03
2.468448399999999959e-03
-1.409988800000000096e-03
-3.313536600000000377e-03
-2.425650700000000354e-03
3.172862000000000252e-04
1.889995800000000056e-03
-1.277760000000000113e-05
2.594397300000000125e-03
1.927239600000000067e-03
-6.153939000000000848e-04
-2.406944100000000305e-03
-3.372657200000000327e-03
-2.958861400000000266e-03
-6.193627000000000594e-04
-1.287440000000000162e-05
1.383368800000000110e-03
2.602032400000000353e-03
2.271787099999999972e-03
3.791172000000000097e-04
-3.235757800000000402e-03
-1.281390000000000110e-05
-3.198247800000000255e-03
-1.660918600000000148e-03
8.620161000000000967e-04
2.287166200000000267e-03
1.321174800000000102e-03
-1.285020000000000107e-05
-2.833396500000000349e-03
-1.280180000000000167e-05
-3.337397800000000032e-03
-2.558920100000000152e-03
1.772892000000000033e-04
1.802863700000000057e-03
2.599455100000000116e-03
1.994092100000000294e-03
-4.885012000000000859e-04
-2.335312100000000012e-03
-3.380534300000000245e-03
-3.013553400000000115e-03
-7.863185000000001050e-04
1.298160600000000013e-03
2.559404099999999967e-03
2.299810700000000027e-03
5.413782000000000880e-04
-1.826047300000000016e-03
-3.226731200000000112e-03
-1.836634800000000022e-03
2.217712200000000224e-03
-1.286230000000000050e-05
1.468891600000000151e-03
-1.282600000000000053e-05
-2.752919400000000075e-03
-1.280180000000000167e-05
0.000000000000000000e+00
-3.336671800000000094e-03
-2.664867700000000256e-03
1.719107500000000054e-03
2.613987199999999976e-03
-1.283810000000000165e-05
2.073371300000000170e-03
-3.100746000000000144e-04
-3.365215700000000199e-03
-3.055407300000000104e-03
-9.612240000000001061e-04
-1.283810000000000165e-05
1.228730799999999982e-03
2.540891100000000017e-03
2.357491400000000323e-03
-1.724201600000000063e-03
-1.281390000000000110e-05
-1.988247800000000117e-03
6.663470000000000764e-04
2.147870999999999982e-03
-1.278970000000000055e-05
0.000000000000000000e+00
1.582534800000000080e-03
-1.285020000000000107e-05
-1.074770399999999985e-03
-3.376371900000000280e-03
-2.781535900000000217e-03
-1.233232000000000122e-04
-1.289860000000000048e-05
1.616426900000000107e-03
2.595740400000000163e-03
2.101152900000000101e-03
-1.828189000000000192e-04
-2.190233100000000231e-03
-3.367538900000000088e-03
-1.136746600000000098e-03
1.145361800000000178e-03
-1.281390000000000110e-05
2.485049600000000230e-03
-1.647257700000000083e-03
-3.281931400000000221e-03
-2.145112200000000302e-03
-1.281390000000000110e-05
0.000000000000000000e+00
5.684217000000000740e-04
-1.280180000000000167e-05
2.067297100000000092e-03
2.553874400000000384e-03
1.702179600000000050e-03
-2.593925400000000100e-03
-3.355233200000000068e-03
-1.285020000000000107e-05
-2.826039700000000047e-03
-2.475297000000000434e-04
1.566139300000000132e-03
2.637848400000000065e-03
1.770230000000000160e-05
-3.329266600000000201e-03
-1.287440000000000162e-05
-3.125877700000000235e-03
-1.294760500000000005e-03
1.064049800000000127e-03
-1.287440000000000162e-05
2.422674100000000129e-03
1.008305100000000173e-03
-1.535913500000000032e-03
-2.994955700000000338e-03
-3.290691800000000375e-03
-1.285020000000000107e-05
-2.274364400000000210e-03
4.482808000000000127e-04
1.984545199999999954e-03
1.797951100000000140e-03
-1.282600000000000053e-05
-8.069732000000000684e-04
-2.519776600000000252e-03
-3.373080700000000327e-03
-2.892662300000000374e-03
-3.958031000000000526e-04
1.483447900000000024e-03
2.220083800000000138e-03
1.773134000000000157e-04
-2.007075400000000228e-03
-1.286230000000000050e-05
-1.474409200000000161e-03
9.696698000000000990e-04
2.361520700000000004e-03
2.453468600000000086e-03
-1.277760000000000113e-05
1.156155000000000073e-03
-1.444873100000000198e-03
-2.922198400000000119e-03
-3.305429600000000124e-03
-2.400398000000000202e-03
-1.285020000000000107e-05
3.444507000000000189e-04
1.909295300000000192e-03
2.591614299999999999e-03
1.901672300000000187e-03
-2.441271800000000339e-03
-3.380655300000000307e-03
-2.962394600000000343e-03
-1.278970000000000055e-05
-5.856279000000000042e-04
1.396896600000000106e-03
2.257097700000000248e-03
-1.927433200000000166e-03
-3.247700500000000236e-03
-1.285020000000000107e-05
-3.188700900000000348e-03
-1.621859800000000074e-03
8.845463000000000457e-04
2.301613600000000301e-03
2.483754900000000217e-03
-1.329027700000000008e-03
-2.849174900000000198e-03
-1.286230000000000050e-05
0.000000000000000000e+00
-3.324608100000000198e-03
-2.519946000000000338e-03
2.099471000000000215e-04
1.827450900000000085e-03
2.600411000000000389e-03
1.978882400000000086e-03
-5.176501000000000670e-04
-2.359572600000000089e-03
-3.378840300000000244e-03
-3.001719600000000120e-03
1.319262999999999990e-03
2.570983800000000048e-03
5.151695999999999880e-04
-1.841983000000000162e-03
-1.286230000000000050e-05
-3.187103700000000397e-03
-1.793002200000000206e-03
7.958291000000001017e-04
2.505861600000000057e-03
-1.282600000000000053e-05
0.000000000000000000e+00
-1.223600400000000171e-03
-1.278970000000000055e-05
-2.778002700000000141e-03
-3.337797100000000020e-03
8.615200000000001134e-05
1.749442200000000209e-03
-1.283810000000000165e-05
0.000000000000000000e+00
2.618064900000000115e-03
2.055511700000000122e-03
-3.559820000000000215e-04
-2.273795700000000135e-03
-3.371435100000000351e-03
-9.156312000000000435e-04
1.248151300000000180e-03
-1.283810000000000165e-05
2.345088900000000254e-03
6.582763000000000590e-04
-1.760779900000000167e-03
-3.145987900000000136e-03
-1.277760000000000113e-05
-3.244760200000000247e-03
-1.938359500000000129e-03
6.943706000000000227e-04
2.166577600000000031e-03
2.536813400000000312e-03
1.548400700000000145e-03
-1.096441500000000036e-03
-2.704604100000000243e-03
-3.353829600000000216e-03
-2.722971900000000119e-03
-5.034810000000000674e-05
1.674264900000000051e-03
2.627527100000000195e-03
2.113628000000000208e-03
-2.072367000000000143e-04
-3.358197700000000070e-03
-1.277760000000000113e-05
-1.079804000000000180e-03
1.163790100000000084e-03
2.372059799999999986e-03
8.094658000000000452e-04
-1.684102200000000106e-03
-1.285020000000000107e-05
-3.099741700000000280e-03
-1.287440000000000162e-05
-3.285174200000000148e-03
-2.107154500000000142e-03
5.878664000000000675e-04
2.082083300000000300e-03
2.547437200000000120e-03
-9.817213999999999888e-04
-3.355874500000000180e-03
-1.283810000000000165e-05
-2.804429100000000244e-03
-1.283810000000000165e-05
-1.920754000000000211e-04
1.597514600000000170e-03
2.639457700000000240e-03
2.174684600000000283e-03
-2.114886399999999986e-03
-3.335570700000000180e-03
-1.241363200000000170e-03
1.091395800000000051e-03
-1.285020000000000107e-05
0.000000000000000000e+00
2.422637800000000327e-03
9.673466000000001007e-04
-1.561492900000000135e-03
3.124837100000000135e-03
-3.286517300000000186e-03
4.919739000000000230e-04
-1.281390000000000110e-05
2.025213300000000202e-03
2.577179000000000188e-03
1.778203900000000209e-03
-8.416034000000000405e-04
-2.543165900000000316e-03
-3.371604500000000438e-03
-2.875673900000000338e-03
1.511156900000000134e-03
2.626547000000000343e-03
2.213561900000000048e-03
1.315875000000000204e-04
-2.034155200000000233e-03
-3.157603900000000019e-03
-1.423008400000000048e-03
9.946321000000001022e-04
-1.281390000000000110e-05
0.000000000000000000e+00
2.381655100000000351e-03
1.110949400000000101e-03
-2.942635300000000405e-03
-3.305248100000000248e-03
-1.285020000000000107e-05
0.000000000000000000e+00
-2.361085100000000214e-03
3.906001000000000416e-04
1.945716300000000214e-03
2.593768100000000236e-03
1.884708100000000164e-03
-7.027559000000000930e-04
-3.372524100000000042e-03
-1.282600000000000053e-05
-5.195861000000000837e-04
1.434188800000000142e-03
-1.285020000000000107e-05
2.258235099999999964e-03
2.904363000000000300e-04
-1.285020000000000107e-05
-1.951439600000000113e-03
-3.263515200000000321e-03
-3.182251600000000295e-03
9.109848000000000468e-04
2.327144599999999945e-03
-1.282600000000000053e-05
1.250982700000000114e-03
-1.285020000000000107e-05
-1.356422100000000174e-03
-3.325685000000000099e-03
-1.281390000000000110e-05
-2.479398900000000152e-03
2.548139000000000372e-04
1.862867600000000026e-03
1.965862799999999917e-03
-5.551238000000000873e-04
-2.372096100000000221e-03
-1.281390000000000110e-05
-3.377097900000000218e-03
-6.746597000000000011e-04
1.359180900000000070e-03
2.598983200000000091e-03
2.301528900000000041e-03
4.694316000000000135e-04
-1.282600000000000053e-05
-1.861052600000000180e-03
-3.212090200000000412e-03
-1.282600000000000053e-05
8.322138000000001059e-04
-1.286230000000000050e-05
2.265833899999999956e-03
2.514972900000000174e-03
1.399498100000000139e-03
-1.253003400000000066e-03
-3.328661600000000324e-03
-2.601270100000000179e-03
1.782910800000000020e-03
-1.287440000000000162e-05
2.618754600000000252e-03
-3.997719000000000272e-04
-3.372354700000000389e-03
-1.277760000000000113e-05
0.000000000000000000e+00
-8.602374000000000522e-04
-1.283810000000000165e-05
1.278340800000000044e-03
2.560952900000000327e-03
6.182253000000000184e-04
-3.157228800000000044e-03
-1.281390000000000110e-05
0.000000000000000000e+00
-3.232394000000000413e-03
-1.882469600000000100e-03
2.195908000000000321e-03
2.535736499999999977e-03
1.525797900000000051e-03
-1.127949900000000142e-03
-3.338753000000000293e-03
-8.349000000000000447e-07
1.701030100000000111e-03
2.640474100000000327e-03
2.109973800000000069e-03
-2.378739000000000266e-04
-2.205963100000000055e-03
-1.281390000000000110e-05
-3.355330000000000118e-03
-1.285020000000000107e-05
0.000000000000000000e+00
-1.026697100000000060e-03
1.192442900000000028e-03
2.516388600000000249e-03
2.379876400000000090e-03
7.936753000000000818e-04
-1.285020000000000107e-05
-1.681500700000000074e-03
-3.081349700000000393e-03
-2.057181500000000111e-03
-1.281390000000000110e-05
6.338585000000000096e-04
2.552930600000000334e-03
-1.005497900000000035e-03
-1.283810000000000165e-05
-3.344355300000000347e-03
-1.287440000000000162e-05
-2.784197900000000281e-03
1.623989400000000081e-03
-1.285020000000000107e-05
2.646221600000000021e-03
-1.283810000000000165e-05
2.170038200000000070e-03
-6.454140000000000517e-05
-2.123501600000000065e-03
-3.335473900000000130e-03
-3.101907600000000306e-03
1.118935400000000075e-03
-1.278970000000000055e-05
2.472163100000000346e-03
9.349791000000000959e-04
-1.291070000000000160e-05
-1.582583200000000105e-03
-3.019857500000000094e-03
-3.270654200000000077e-03
5.243414000000000278e-04
-1.281390000000000110e-05
2.044936300000000338e-03
2.582708700000000204e-03
1.772057100000000093e-03
-8.657913000000000804e-04
-3.362577900000000147e-03
-1.281390000000000110e-05
-2.853567200000000064e-03
-3.056823000000000396e-04
1.534328400000000087e-03
2.211081400000000294e-03
1.048223000000000010e-04
-2.041778200000000237e-03
-3.295277700000000341e-03
-3.133682200000000116e-03
-1.282600000000000053e-05
-1.380452700000000133e-03
1.024071400000000015e-03
2.407186099999999995e-03
2.451653600000000023e-03
-1.485105600000000007e-03
-1.287440000000000162e-05
-3.290522400000000288e-03
-2.334440899999999999e-03
4.268154000000000132e-04
-1.282600000000000053e-05
2.593550300000000124e-03
-1.285020000000000107e-05
1.867792300000000166e-03
-7.279844000000000159e-04
-2.468593600000000034e-03
-3.370539700000000326e-03
-4.846292000000000525e-04
1.453887600000000049e-03
-1.283810000000000165e-05
2.627442400000000369e-03
2.255815100000000024e-03
2.785541000000000102e-04
-1.960066900000000199e-03
-3.255952700000000130e-03
-3.161500100000000282e-03
-1.532694900000000117e-03
9.536373000000000115e-04
2.357987500000000361e-03
2.492285400000000036e-03
1.248090800000000149e-03
-2.864251500000000120e-03
-1.282600000000000053e-05
-3.309446800000000015e-03
-2.451847200000000122e-03
2.621295600000000253e-03
1.962148099999999964e-03
-1.285020000000000107e-05
-5.724631000000000858e-04
-1.285020000000000107e-05
-2.378787399999999965e-03
-3.373951900000000340e-03
-2.969932900000000087e-03
-6.453051000000000230e-04
2.608288100000000307e-03
-1.288650000000000105e-05
2.299048400000000287e-03
4.592192000000000366e-04
-3.201163900000000232e-03
-1.282600000000000053e-05
-1.703885700000000057e-03
-1.282600000000000053e-05
8.652468000000000182e-04
2.282060000000000251e-03
2.519510400000000115e-03
-1.264341100000000023e-03
-1.285020000000000107e-05
-2.790429400000000223e-03
-3.312024100000000252e-03
1.771803000000000017e-04
1.801339100000000143e-03
2.628628200000000109e-03
2.044331300000000028e-03
-4.167119000000000378e-04
-2.295926599999999988e-03
-3.360024800000000356e-03
-1.282600000000000053e-05
-8.194483000000000669e-04
-1.287440000000000162e-05
1.303617699999999992e-03
2.583083800000000180e-03
6.166402000000000732e-04
-1.283810000000000165e-05
-1.777477900000000053e-03
-3.144318100000000147e-03
-1.848771100000000172e-03
7.646353000000000481e-04
-1.285020000000000107e-05
2.546493400000000070e-03
1.514847400000000075e-03
-2.719559700000000104e-03
-3.339261200000000120e-03
-1.280180000000000167e-05
-2.671425900000000148e-03
-1.280180000000000167e-05
3.381950000000000375e-05
1.722410800000000013e-03
2.644200900000000069e-03
2.109441400000000230e-03
-2.212956900000000171e-03
-1.281390000000000110e-05
-3.349764000000000300e-03
-3.049623500000000174e-03
-9.887031000000000985e-04
1.226516500000000148e-03
7.839469000000000819e-04
-1.690115900000000154e-03
-3.238335100000000206e-03
-1.289860000000000048e-05
0.000000000000000000e+00
6.763295000000000981e-04
2.146189100000000204e-03
-1.283810000000000165e-05
2.566095400000000144e-03
1.646604300000000182e-03
-1.017791500000000049e-03
-2.635549400000000188e-03
-3.338740900000000070e-03
-2.760082600000000278e-03
-1.133044000000000125e-04
-1.289860000000000048e-05
1.644668300000000057e-03
2.649403900000000135e-03
2.165379700000000067e-03
-8.698690000000000567e-05
-2.128740899999999932e-03
-3.332727200000000240e-03
-1.161708900000000102e-03
1.143208000000000158e-03
-1.289860000000000048e-05
2.493047700000000210e-03
2.412207600000000184e-03
-1.592916600000000198e-03
-3.021285300000000392e-03
-3.259824700000000380e-03
5.605809000000000659e-04
-1.281390000000000110e-05
0.000000000000000000e+00
2.069535600000000156e-03
2.591372300000000309e-03
-2.549675700000000184e-03
-1.283810000000000165e-05
-3.349316300000000288e-03
-1.281390000000000110e-05
-2.833807900000000126e-03
-2.667566000000000338e-04
1.555926900000000100e-03
2.647830900000000195e-03
2.204753100000000302e-03
8.001730000000001060e-05
-3.293632100000000364e-03
-1.277760000000000113e-05
-3.114479500000000029e-03
-1.339990299999999990e-03
1.066615000000000141e-03
2.459651700000000003e-03
1.089484000000000155e-03
-1.282600000000000053e-05
-1.494446800000000025e-03
-3.269383700000000077e-03
-2.286766900000000279e-03
-1.283810000000000165e-05
4.648336000000000416e-04
1.993329800000000120e-03
2.608747900000000109e-03
1.864960900000000232e-03
-3.354083700000000130e-03
-2.895965600000000115e-03
-1.281390000000000110e-05
-4.280617000000000558e-04
-1.280180000000000167e-05
1.479817900000000115e-03
2.640111100000000141e-03
2.249910300000000033e-03
2.494294000000000415e-04
-3.258759900000000268e-03
-3.143749400000000072e-03
-1.494132200000000080e-03
9.823264000000000822e-04
-1.278970000000000055e-05
2.494487600000000298e-03
1.239596600000000132e-03
-1.376641200000000131e-03
-1.282600000000000053e-05
-2.870495100000000285e-03
-3.290558700000000090e-03
-2.420484000000000090e-03
3.300759000000000223e-04
1.907238300000000221e-03
1.958106700000000061e-03
-6.052904000000000010e-04
-2.388612600000000231e-03
-1.281390000000000110e-05
-3.358802700000000380e-03
-5.915205999999999893e-04
-1.278970000000000055e-05
1.408561000000000014e-03
2.629862400000000308e-03
2.302133900000000351e-03
-1.877085100000000159e-03
-1.277760000000000113e-05
-3.200111200000000343e-03
-1.660483000000000141e-03
-1.278970000000000055e-05
2.313507900000000110e-03
2.519558800000000140e-03
1.373337900000000172e-03
-1.285020000000000107e-05
-2.797229600000000239e-03
-1.285020000000000107e-05
-3.297564600000000429e-03
-2.538967200000000115e-03
2.162391000000000215e-04
1.831274500000000093e-03
2.632052500000000347e-03
2.035377300000000209e-03
-4.504225000000000264e-04
-3.350030200000000437e-03
-7.678176000000000532e-04
-1.285020000000000107e-05
1.338441500000000063e-03
-1.283810000000000165e-05
2.339196200000000052e-03
5.723784000000000424e-04
-1.800238000000000229e-03
-3.163581300000000048e-03
-3.208859500000000274e-03
-1.818400100000000215e-03
7.932034000000000567e-04
2.244550000000000104e-03
-1.286230000000000050e-05
2.545029299999999970e-03
-1.160716700000000027e-03
-3.318364500000000033e-03
7.727060000000001198e-05
1.751245100000000049e-03
-1.288650000000000105e-05
0.000000000000000000e+00
2.651642400000000198e-03
-1.287440000000000162e-05
2.094618900000000221e-03
-2.920819000000000063e-04
-2.227053400000000242e-03
-3.023451200000000418e-03
-9.333577000000000236e-04
-1.285020000000000107e-05
1.251660300000000028e-03
2.380650800000000053e-03
-1.704611700000000212e-03
-3.091320100000000300e-03
-3.220475500000000157e-03
-1.283810000000000165e-05
7.060229000000000331e-04
-1.282600000000000053e-05
2.160951099999999965e-03
-1.281390000000000110e-05
2.557528600000000089e-03
1.622924600000000186e-03
-2.647383200000000183e-03
-2.729324400000000123e-03
-8.532920000000000966e-05
1.681694300000000173e-03
2.657934400000000388e-03
-1.281390000000000110e-05
2.169082300000000230e-03
-1.281390000000000110e-05
-2.140284300000000212e-03
-3.323676400000000371e-03
-1.121791000000000021e-03
-1.281390000000000110e-05
1.175345600000000153e-03
2.519570900000000363e-03
2.413224000000000272e-03
-1.282600000000000053e-05
-1.608235200000000028e-03
-3.028194400000000248e-03
-3.250181000000000424e-03
-2.117487900000000235e-03
-1.278970000000000055e-05
5.854464000000000196e-04
2.089573200000000019e-03
2.586641200000000269e-03
-9.079598000000000139e-04
-2.571298400000000210e-03
-1.280180000000000167e-05
-3.341439200000000369e-03
-2.810382300000000260e-03
-2.210307000000000114e-04
1.593933000000000069e-03
2.664069100000000280e-03
2.213223100000000308e-03
5.700310000000000316e-05
-2.059710400000000323e-03
-3.094393500000000140e-03
1.087499600000000005e-03
2.448471300000000343e-03
-1.283810000000000165e-05
0.000000000000000000e+00
2.449499800000000220e-03
-1.514508600000000118e-03
-2.962201000000000244e-03
-1.281390000000000110e-05
-3.267798600000000348e-03
-2.270347200000000319e-03
4.834797000000000595e-04
2.009241300000000254e-03
2.609824800000000011e-03
1.846714100000000202e-03
-2.482145600000000042e-03
-1.282600000000000053e-05
-3.345069200000000062e-03
-2.880441300000000180e-03
-3.998929000000000351e-04
1.507490600000000206e-03
2.649101400000000196e-03
2.253032100000000332e-03
2.289683000000000148e-04
-1.978882400000000086e-03
-3.266854800000000298e-03
-3.144221300000000097e-03
-1.467609000000000144e-03
2.390851100000000295e-03
-1.278970000000000055e-05
2.480439500000000252e-03
-2.880513900000000217e-03
-3.282197600000000357e-03
-2.378267100000000349e-03
3.582205000000000306e-04
1.931934400000000088e-03
-1.287440000000000162e-05
0.000000000000000000e+00
1.940114000000000161e-03
-6.169306000000000052e-04
-2.399514699999999966e-03
-3.356346400000000205e-03
-1.278970000000000055e-05
-2.931503300000000336e-03
-5.635454000000000678e-04
1.420927200000000066e-03
2.621404500000000092e-03
3.911325000000000435e-04
-1.278970000000000055e-05
-1.899397500000000105e-03
-3.214389200000000290e-03
-1.635194000000000187e-03
9.108154000000000684e-04
-1.282600000000000053e-05
2.324676199999999981e-03
1.350577799999999997e-03
-1.292243700000000016e-03
-2.805324500000000269e-03
-1.287440000000000162e-05
-3.298351100000000181e-03
-2.510314400000000171e-03
2.406448000000000105e-04
2.637195000000000164e-03
2.032195000000000095e-03
-1.285020000000000107e-05
-4.567750000000000304e-04
-2.310664400000000170e-03
-3.346085600000000149e-03
-2.975559400000000153e-03
-7.411976000000000675e-04
1.348073100000000014e-03
2.605759200000000095e-03
2.332529100000000320e-03
5.633760000000000894e-04
-1.805392600000000052e-03
-3.191943700000000276e-03
-1.781495100000000161e-03
2.259070000000000175e-03
1.487247300000000020e-03
-1.163221400000000010e-03
-2.731369300000000087e-03
-1.282600000000000053e-05
