-1.801157600000000050e-03
-1.148786099999999982e-03
-1.631213100000000098e-03
-3.847582200000000067e-03
-5.609802000000000538e-03
-6.480046100000000191e-03
-6.215467500000000298e-03
-4.201047400000000424e-03
-2.271218400000000331e-03
-1.182726600000000034e-03
-1.330987900000000146e-03
-2.969896600000000286e-03
-5.100367800000000021e-03
-6.324815200000000193e-03
-6.396023700000000485e-03
-5.106139500000000594e-03
-2.792353300000000125e-03
-1.439863700000000015e-03
-1.192491300000000053e-03
-2.129043400000000304e-03
-4.499288200000000661e-03
-6.464558100000000057e-03
-1.276550000000000170e-05
-5.869298600000000428e-03
-3.467267100000000039e-03
-1.131967100000000033e-03
-1.582510600000000068e-03
-1.281390000000000110e-05
-3.731422200000000366e-03
-6.478134300000000512e-03
-6.249117600000000418e-03
-1.283810000000000165e-05
-4.332937400000000383e-03
-1.208959400000000038e-03
-1.283810000000000165e-05
-1.293381100000000165e-03
-2.863440800000000355e-03
-5.014590900000000066e-03
-6.285913700000000416e-03
-6.419122600000000400e-03
-5.234907700000000254e-03
-2.891089300000000001e-03
-1.503243500000000198e-03
-1.186755900000000148e-03
-2.057108900000000073e-03
-4.411805200000000482e-03
-5.943144900000000772e-03
-6.483881800000000639e-03
-5.957265599999999987e-03
-3.600403400000000420e-03
-1.949431000000000167e-03
-1.147515599999999981e-03
-1.547311700000000021e-03
-3.628765800000000215e-03
-5.491851200000000786e-03
-6.474625300000000014e-03
-6.314227700000000186e-03
-4.488579700000000158e-03
-2.438028999999999977e-03
-1.293187500000000066e-03
-1.281390000000000110e-05
-2.754940100000000027e-03
-6.271357400000000110e-03
-6.448090000000000072e-03
-5.388964900000000301e-03
-1.286230000000000050e-05
-2.993201200000000090e-03
-1.977285200000000135e-03
-1.281390000000000110e-05
-4.333481900000000012e-03
-5.896015400000000246e-03
-6.504621200000000429e-03
-1.285020000000000107e-05
-6.042740000000000437e-03
-2.026495899999999992e-03
-1.144212300000000022e-03
-1.287440000000000162e-05
-1.490381200000000109e-03
-3.494722000000000019e-03
-6.422849400000000576e-03
-6.287365700000000293e-03
-1.283810000000000165e-05
-4.555129700000000448e-03
-1.232155100000000003e-03
-1.281390000000000110e-05
-1.214743200000000184e-03
-2.596442200000000089e-03
-4.837023400000000327e-03
-6.183499300000000823e-03
-5.450287700000000513e-03
-3.059025200000000007e-03
-1.285020000000000107e-05
-1.190833600000000070e-03
-1.925497200000000041e-03
-1.281390000000000110e-05
-4.281572899999999855e-03
-5.902985000000000350e-03
-6.598347800000000339e-03
-6.203524800000000464e-03
-3.971679799999999934e-03
-1.293877199999999986e-03
-1.281390000000000110e-05
-1.589903700000000171e-03
-3.523229600000000322e-03
-5.477899900000000356e-03
-6.553735100000000237e-03
-6.478158500000000090e-03
-1.397913000000000194e-03
-1.283810000000000165e-05
0.000000000000000000e+00
-1.301355000000000133e-03
-2.574287100000000224e-03
-4.836841900000000451e-03
-6.209804699999999997e-03
-6.485563700000000417e-03
-5.627915700000000500e-03
-3.189451100000000299e-03
-1.714642600000000150e-03
-1.196847300000000117e-03
-4.141854200000000437e-03
-5.785542400000000425e-03
-6.160848100000000487e-03
-2.167303599999999969e-03
-1.285020000000000107e-05
0.000000000000000000e+00
-1.179290200000000007e-03
-1.285020000000000107e-05
-1.435495600000000161e-03
-3.283419700000000333e-03
-6.428427500000000183e-03
-1.280180000000000167e-05
-6.395551800000000460e-03
-4.876711400000000723e-03
-1.377028400000000112e-03
-1.280180000000000167e-05
-1.242379600000000041e-03
-6.134954100000000222e-03
-6.475085100000000683e-03
-5.704230400000000374e-03
-1.287440000000000162e-05
-3.272529700000000388e-03
-1.281390000000000110e-05
-1.753580400000000162e-03
-1.160656199999999996e-03
-1.738576400000000060e-03
-5.701774100000000199e-03
-6.509025600000000085e-03
-6.187710100000000379e-03
-1.286230000000000050e-05
-4.085940100000000179e-03
-2.212073599999999935e-03
-1.177862400000000143e-03
-1.374547900000000142e-03
-5.203314600000000754e-03
-1.272920000000000003e-05
-6.374340500000000645e-03
-4.976935700000000712e-03
-1.283810000000000165e-05
-2.718978900000000240e-03
-1.404810000000000043e-03
-1.207362200000000087e-03
-2.291945700000000332e-03
-4.621171500000000043e-03
-6.067000500000000081e-03
-5.779032600000000124e-03
-1.287440000000000162e-05
-3.346448600000000335e-03
-1.792748100000000075e-03
-1.145277100000000135e-03
-1.646701100000000015e-03
-3.878473500000000074e-03
-5.618864900000000197e-03
-6.479187000000000834e-03
-6.204275000000000415e-03
-4.175746300000000681e-03
-2.254387300000000160e-03
-1.318948400000000045e-03
-2.993624700000000090e-03
-1.277760000000000113e-05
-5.096665200000000291e-03
-6.318886200000000189e-03
-5.074110800000000004e-03
-2.763966700000000318e-03
-1.411283500000000109e-03
-1.285020000000000107e-05
-1.162701100000000176e-03
-2.142135600000000077e-03
-4.489729200000000531e-03
-5.969208300000000689e-03
-6.429564900000000333e-03
-3.404746400000000298e-03
-1.283810000000000165e-05
-1.811164300000000192e-03
-1.079888700000000007e-03
-1.544431900000000062e-03
-3.709726900000000303e-03
-5.493992900000000366e-03
-6.422510600000000403e-03
-6.183051600000000377e-03
-4.237928200000000249e-03
-1.129801200000000007e-03
-1.288650000000000105e-05
-1.220067200000000095e-03
-2.818682900000000179e-03
-6.211196200000000493e-03
-6.334071700000000818e-03
-5.117440900000000750e-03
-2.772678700000000013e-03
-1.281390000000000110e-05
-1.391282200000000047e-03
-1.076561200000000036e-03
-1.973413200000000318e-03
-4.325774200000000180e-03
-5.843779700000000139e-03
-6.361163600000000612e-03
-5.821201100000000274e-03
-3.448185400000000449e-03
-1.802137700000000118e-03
-1.019836400000000013e-03
-1.422282400000000110e-03
-3.528226900000000065e-03
-5.372896100000000737e-03
-6.348736900000000530e-03
-6.175682700000000719e-03
-4.326403400000000503e-03
-2.290070200000000021e-03
-1.129426100000000032e-03
-2.669768200000000383e-03
-1.287440000000000162e-05
-6.163147100000000364e-03
-6.329171200000000691e-03
-5.245604100000000533e-03
-1.281390000000000110e-05
-2.864021600000000219e-03
-1.452048400000000190e-03
-1.890867000000000069e-03
-1.278970000000000055e-05
-4.257893200000000510e-03
-5.816857199999999999e-03
-6.408631900000000443e-03
-5.936344700000000321e-03
-3.603113800000000075e-03
-1.927251700000000073e-03
-1.073572500000000022e-03
-1.440529200000000140e-03
-3.478653200000000022e-03
-5.370597099999999992e-03
-6.408583500000000419e-03
-2.441550100000000265e-03
-1.283810000000000165e-05
-1.236039200000000043e-03
-1.282600000000000053e-05
-1.223733500000000023e-03
-2.631677400000000371e-03
-4.856867400000000091e-03
-6.192586400000000060e-03
-6.414948100000000646e-03
-3.018877400000000242e-03
-1.281390000000000110e-05
-1.580635100000000190e-03
-1.146208800000000179e-03
-1.871156100000000155e-03
-4.214696200000000482e-03
-6.466724000000000083e-03
-6.048560100000000168e-03
-1.287440000000000162e-05
-3.780403000000000322e-03
-2.038148200000000111e-03
-1.129244600000000156e-03
-1.437117000000000125e-03
-5.342174199999999949e-03
-6.418723300000000846e-03
-6.340823500000000376e-03
-1.280180000000000167e-05
-4.687116500000000456e-03
-1.299467400000000033e-03
-1.232312400000000084e-03
-2.526552600000000256e-03
-6.171387200000000468e-03
-1.285020000000000107e-05
-6.439741000000000562e-03
-1.278970000000000055e-05
-5.560954300000000433e-03
-3.125635700000000110e-03
-1.655122700000000212e-03
-1.800540500000000167e-03
-1.283810000000000165e-05
-4.134884600000000333e-03
-6.490633600000000197e-03
-1.285020000000000107e-05
-6.116295900000000632e-03
-3.908263700000000167e-03
-1.415458000000000081e-03
-1.285020000000000107e-05
0.000000000000000000e+00
-3.283746400000000284e-03
-5.274510999999999956e-03
-6.367431400000000789e-03
-4.824403100000000146e-03
-2.626401800000000269e-03
-1.349851800000000058e-03
-1.285020000000000107e-05
-1.227363500000000149e-03
-2.424489100000000192e-03
-4.721311100000000205e-03
-6.127185900000000143e-03
-6.462852000000000700e-03
-3.236024000000000105e-03
-1.731340600000000037e-03
-1.156651100000000111e-03
-1.285020000000000107e-05
-1.745255600000000015e-03
-4.027412400000000316e-03
-5.710340900000000254e-03
-6.501015400000000749e-03
-6.169402800000000318e-03
-4.055520700000000631e-03
-2.191963400000000034e-03
-1.377778600000000063e-03
-3.163895900000000209e-03
-5.212510600000000265e-03
-6.374316300000000199e-03
-6.399496400000000314e-03
-4.958011300000000551e-03
-1.282600000000000053e-05
-1.400502400000000003e-03
-1.216364600000000148e-03
-1.282600000000000053e-05
-2.310664400000000170e-03
-4.641027600000000031e-03
-6.464691200000000776e-03
-1.285020000000000107e-05
-5.766956800000000438e-03
-3.332896600000000327e-03
-1.789456900000000123e-03
-1.666520900000000201e-03
-1.283810000000000165e-05
-3.910538500000000466e-03
-5.635587100000000529e-03
-6.212454600000000271e-03
-1.289860000000000048e-05
-4.169696300000000182e-03
-2.261284300000000226e-03
-3.044589900000000196e-03
-1.283810000000000165e-05
-5.137260700000000069e-03
-1.283810000000000165e-05
-6.347478500000000752e-03
-6.409987100000000271e-03
-2.791276400000000223e-03
-1.283810000000000165e-05
-1.204688100000000017e-03
-1.281390000000000110e-05
-2.204269100000000054e-03
-4.545631200000000566e-03
-6.476537100000000560e-03
-1.278970000000000055e-05
-5.851693100000000293e-03
-3.450593300000000165e-03
-1.141284100000000039e-03
-1.282600000000000053e-05
-1.617612700000000065e-03
-3.791704400000000044e-03
-5.576164000000000641e-03
-6.494844400000000621e-03
-6.257623900000000225e-03
-2.333376100000000321e-03
-1.281390000000000110e-05
-1.315040099999999993e-03
-2.926469700000000358e-03
-5.065060000000000569e-03
-6.314602800000000161e-03
-6.431053200000000011e-03
-1.277760000000000113e-05
-5.204210000000000780e-03
-2.866332700000000320e-03
-1.495910900000000125e-03
-1.198166200000000143e-03
-2.099204800000000187e-03
-4.457990900000000090e-03
-5.971398400000000294e-03
-5.939466500000000621e-03
-3.555294600000000280e-03
-1.281390000000000110e-05
-1.147503499999999975e-03
-1.286230000000000050e-05
-3.679960900000000222e-03
-5.509686599999999955e-03
-6.480469600000000191e-03
-1.282600000000000053e-05
-4.435025100000000026e-03
-1.283810000000000165e-05
-1.245138400000000154e-03
-1.278970000000000055e-05
-1.302722300000000184e-03
-2.801984900000000292e-03
-4.992097000000000027e-03
-6.283312200000000167e-03
-6.441568100000000414e-03
-5.336753400000000640e-03
-2.961462900000000082e-03
-1.556870700000000151e-03
-1.189188000000000094e-03
-2.012133200000000219e-03
-4.365268600000000478e-03
-6.500434600000000451e-03
-1.281390000000000110e-05
-1.997988300000000123e-03
-1.142482000000000003e-03
-1.522494600000000092e-03
-1.287440000000000162e-05
-3.563825100000000100e-03
-6.475097200000000039e-03
-1.286230000000000050e-05
-6.331034600000000345e-03
-1.282600000000000053e-05
-4.568234000000000010e-03
-1.284765900000000086e-03
-1.278970000000000055e-05
-1.272593300000000134e-03
-2.693883500000000385e-03
-4.913834200000000672e-03
-6.241893900000000835e-03
-5.450965299999999993e-03
-1.287440000000000162e-05
-3.051087600000000274e-03
-1.614950700000000001e-03
-1.920741900000000205e-03
-1.289860000000000048e-05
-5.859255600000000050e-03
-6.501741400000000254e-03
-6.075252700000000408e-03
-1.281390000000000110e-05
-3.797863300000000383e-03
-2.063606600000000152e-03
-1.474167200000000037e-03
-3.444652200000000372e-03
-1.287440000000000162e-05
-5.380482800000000072e-03
-6.455422600000000795e-03
-6.362942300000000440e-03
-2.560263200000000190e-03
-1.289860000000000048e-05
-1.320400400000000139e-03
-1.258992900000000100e-03
-2.561328000000000302e-03
-4.828359800000000222e-03
-6.197486900000000187e-03
-6.455374200000000770e-03
-3.136755600000000390e-03
-1.281390000000000110e-05
-1.667404200000000220e-03
-1.171388900000000077e-03
-1.825115600000000188e-03
-4.156749300000000050e-03
-6.503568500000000106e-03
-1.282600000000000053e-05
-3.906436600000000314e-03
-2.124711600000000252e-03
-1.151992600000000108e-03
-1.281390000000000110e-05
-1.428792200000000194e-03
-3.316150200000000416e-03
-6.426273700000000380e-03
-6.383137200000000601e-03
-1.291070000000000160e-05
-4.818026400000000563e-03
-2.634678200000000175e-03
-1.358890500000000138e-03
-1.231550100000000127e-03
-2.453287100000000210e-03
-4.741723800000000044e-03
-5.665631400000000102e-03
-1.285020000000000107e-05
-3.237040400000000193e-03
-1.730372600000000191e-03
-1.278970000000000055e-05
-1.756242400000000226e-03
-4.041569400000000201e-03
-1.283810000000000165e-05
-5.726530700000000314e-03
-6.183245200000000476e-03
-2.203555200000000339e-03
-1.287440000000000162e-05
0.000000000000000000e+00
-1.196290700000000049e-03
-1.400720200000000115e-03
-3.206391100000000310e-03
-5.245942900000000707e-03
-6.409212700000000741e-03
-6.423272900000000576e-03
-4.967703400000000533e-03
-1.417527100000000057e-03
-1.283810000000000165e-05
-4.675924000000000573e-03
-6.117808400000000757e-03
-6.487015700000000294e-03
-5.789293400000000180e-03
-3.348566100000000337e-03
-1.814540200000000188e-03
-1.283810000000000165e-05
-1.704575400000000194e-03
-1.278970000000000055e-05
0.000000000000000000e+00
-3.951896300000000417e-03
-6.527127200000000691e-03
-6.240345100000000041e-03
-2.294389900000000284e-03
-1.219631600000000088e-03
-1.387555400000000088e-03
-3.088210400000000223e-03
-1.283810000000000165e-05
0.000000000000000000e+00
-5.176246900000000539e-03
-6.388812100000000258e-03
-6.438482600000000784e-03
-2.800012600000000365e-03
-1.450172900000000096e-03
-1.283810000000000165e-05
-1.199678700000000051e-03
-2.197747199999999963e-03
-5.992149900000000307e-03
-6.436304600000000535e-03
-5.804636200000000239e-03
-1.816827100000000059e-03
-1.111433400000000132e-03
-1.585039500000000063e-03
-1.281390000000000110e-05
-3.758586700000000197e-03
-1.281390000000000110e-05
-5.541255500000000743e-03
-6.241615600000000041e-03
-2.357745500000000237e-03
-1.277760000000000113e-05
0.000000000000000000e+00
-1.274396200000000191e-03
-1.398167100000000107e-03
-5.192303600000000748e-03
-1.283810000000000165e-05
-6.458713800000000747e-03
-6.580427700000000477e-03
-5.351636400000000029e-03
-3.015235300000000326e-03
-1.641558600000000197e-03
-1.342616000000000035e-03
-2.241585500000000102e-03
-4.588997600000000246e-03
-6.587385200000000357e-03
-1.283810000000000165e-05
-3.627688900000000313e-03
-1.997722099999999987e-03
-1.287440000000000162e-05
-1.214791599999999992e-03
-3.735221600000000145e-03
-6.526691600000000468e-03
-6.334289500000000496e-03
-1.283810000000000165e-05
-4.465444500000000441e-03
-1.285020000000000107e-05
-2.443716000000000291e-03
-1.334133900000000024e-03
-2.845327100000000393e-03
-1.277760000000000113e-05
-5.021209600000000640e-03
-6.316272600000000584e-03
-6.471225200000000656e-03
-5.358932700000000084e-03
-2.983944700000000332e-03
-1.576678400000000113e-03
-2.035147400000000308e-03
-1.287440000000000162e-05
-5.932908300000000294e-03
-6.519891400000000017e-03
-6.025243400000000575e-03
-3.692968400000000168e-03
-2.012919699999999971e-03
-1.287440000000000162e-05
-1.538648100000000133e-03
-3.576082400000000095e-03
-5.457971200000000765e-03
-6.488189400000000245e-03
-1.280180000000000167e-05
-6.347490600000000108e-03
-4.574913199999999965e-03
-1.296345600000000167e-03
-1.282321700000000134e-03
-2.701167700000000216e-03
-1.283810000000000165e-05
-6.464437100000000429e-03
-5.456422399999999971e-03
-3.053205100000000276e-03
-1.612942100000000056e-03
-1.188026400000000149e-03
-1.919870700000000192e-03
-4.265721899999999969e-03
-1.289860000000000048e-05
-5.856750900000000717e-03
-1.288650000000000105e-05
-6.497663700000000549e-03
-6.075688300000000631e-03
-3.785085700000000337e-03
-2.053006999999999922e-03
-3.440925400000000196e-03
-5.369266100000000611e-03
-1.285020000000000107e-05
-6.444326900000000094e-03
-6.350636600000000853e-03
-4.677376000000000450e-03
-2.541290400000000005e-03
-1.283810000000000165e-05
-2.555072300000000348e-03
-6.182023100000000500e-03
-1.282600000000000053e-05
-6.436607100000000040e-03
-1.285020000000000107e-05
-5.539936600000000717e-03
-1.289860000000000048e-05
-3.103783100000000184e-03
-1.145640100000000104e-03
-1.806578400000000226e-03
-4.127842400000000626e-03
-5.751372000000000255e-03
-1.281390000000000110e-05
-3.872798600000000417e-03
-2.083789400000000090e-03
-1.384203700000000105e-03
-3.266128800000000360e-03
-1.275340000000000058e-05
-5.245930800000000484e-03
-6.369815100000000493e-03
-1.281390000000000110e-05
7.502000000000000340e-07
-4.749419400000000520e-03
-2.560347900000000017e-03
-1.281789300000000078e-03
-1.159155800000000094e-03
-2.371285400000000022e-03
-4.659165500000000439e-03
-6.379144200000000722e-03
-1.626615100000000126e-03
-1.060068900000000038e-03
-6.383234000000000651e-03
-1.281390000000000110e-05
0.000000000000000000e+00
0.000000000000000000e+00
0.000000000000000000e+00
0.000000000000000000e+00
0.000000000000000000e+00
-6.054549600000000420e-03
-1.042536000000000157e-03
-1.254830500000000135e-03
-1.283810000000000165e-05
-3.049429900000000075e-03
-1.283810000000000165e-05
-6.262669600000000426e-03
-1.282600000000000053e-05
-4.809217600000000384e-03
-2.564401400000000143e-03
-1.283810000000000165e-05
-1.254213400000000036e-03
-1.079670900000000112e-03
-2.180637800000000300e-03
-4.509331200000000171e-03
-5.946823300000000055e-03
-6.325359700000000689e-03
-5.631352100000000527e-03
-3.189281700000000212e-03
-1.658547000000000016e-03
-1.024035099999999997e-03
-3.806127600000000066e-03
-1.280180000000000167e-05
-5.524497000000000609e-03
-6.102864900000000252e-03
-4.055339199999999887e-03
-1.281390000000000110e-05
-2.157393700000000310e-03
-1.083736500000000028e-03
-1.253003400000000066e-03
-2.963846600000000220e-03
-6.268344500000000083e-03
-6.332075200000000445e-03
-1.286230000000000050e-05
-4.994855800000000574e-03
-2.711089700000000099e-03
-1.131301600000000126e-03
-4.484235799999999883e-03
-1.286230000000000050e-05
-5.968760600000000242e-03
-1.286230000000000050e-05
-6.414415700000000373e-03
-3.391605800000000066e-03
-1.803819600000000113e-03
-1.278970000000000055e-05
-1.570204900000000047e-03
-3.749475400000000080e-03
-1.281390000000000110e-05
-5.534007600000000714e-03
-6.443842900000000713e-03
-6.214463200000000000e-03
-2.292816900000000345e-03
-1.179701600000000001e-03
-1.281390000000000110e-05
-2.893848100000000114e-03
-1.283810000000000165e-05
-5.028288100000000149e-03
-6.401710700000000365e-03
-1.285020000000000107e-05
-5.172508000000000140e-03
-2.841927000000000168e-03
-1.465927100000000149e-03
-1.168061400000000105e-03
-2.070721400000000330e-03
-4.431842800000000346e-03
-5.942068000000000003e-03
-6.451853100000000049e-03
-5.915230200000000556e-03
-3.531312400000000129e-03
-1.902846000000000138e-03
-1.124525600000000122e-03
-1.536022400000000088e-03
-5.485305100000000683e-03
-6.461484700000000650e-03
-6.277734100000000560e-03
-1.285020000000000107e-05
-4.415882900000000187e-03
-2.396634900000000224e-03
-1.228718699999999976e-03
-1.275642500000000179e-03
-4.963795100000000481e-03
-1.285020000000000107e-05
-6.263105200000000650e-03
-6.426975500000000306e-03
-5.320733000000000233e-03
-2.949895300000000224e-03
-1.538430300000000021e-03
-1.175527100000000030e-03
-1.993487099999999984e-03
-4.342169700000000562e-03
-5.898350700000000793e-03
-6.484135900000000119e-03
-3.673668900000000032e-03
-1.988199400000000092e-03
-1.501210700000000023e-03
-1.287440000000000162e-05
-5.426353899999999952e-03
-6.454273100000000422e-03
-1.287440000000000162e-05
-6.326194600000000466e-03
-4.557114100000000598e-03
-2.480270100000000165e-03
-1.279199900000000051e-03
-1.257795000000000137e-03
-2.670361100000000036e-03
-1.276550000000000170e-05
-4.888012800000000012e-03
-6.443600900000000589e-03
-1.283810000000000165e-05
-5.449307600000000661e-03
-3.044372100000000084e-03
-1.172489999999999991e-03
-1.893008700000000082e-03
-1.280180000000000167e-05
-4.238375900000000696e-03
-6.479537900000000364e-03
-6.069202700000000776e-03
-2.054821999999999985e-03
-1.144563199999999985e-03
-1.287440000000000162e-05
0.000000000000000000e+00
-1.449834100000000139e-03
-3.411812800000000017e-03
-6.435748000000000683e-03
-6.349608100000000109e-03
-1.287440000000000162e-05
-4.697655600000000438e-03
-2.562550100000000278e-03
-1.312269200000000090e-03
-1.249930000000000008e-03
-2.539802100000000326e-03
-4.806785500000000655e-03
-6.448924900000000716e-03
-5.569557400000000290e-03
-1.281390000000000110e-05
-1.670937400000000080e-03
-1.811478900000000137e-03
-1.281390000000000110e-05
-4.136058300000000285e-03
-5.766932599999999992e-03
-6.501680900000000006e-03
-1.285020000000000107e-05
-3.925711900000000004e-03
-1.282600000000000053e-05
-2.134742499999999973e-03
-1.153359900000000158e-03
-1.418446700000000095e-03
-3.294140300000000191e-03
-5.280512600000000431e-03
-6.416980900000000820e-03
-6.380898700000000104e-03
-2.639288300000000153e-03
-1.356482599999999988e-03
-1.227169900000000050e-03
-2.427514100000000008e-03
-4.719931699999999931e-03
-6.131336200000000319e-03
-1.277760000000000113e-05
-6.465586600000000801e-03
-5.676073700000000034e-03
-1.735297300000000114e-03
-1.280180000000000167e-05
-1.160922400000000132e-03
-1.734982700000000169e-03
-4.017998600000000260e-03
-5.704871700000000052e-03
-6.499043100000000822e-03
-6.182785400000000674e-03
-4.060711600000000039e-03
-2.203168000000000140e-03
-1.376520200000000069e-03
-1.278970000000000055e-05
-3.161415400000000021e-03
-5.208904800000000584e-03
-6.384407700000000602e-03
-6.407639700000000368e-03
-4.972410300000000560e-03
-2.722826700000000044e-03
-1.407351000000000045e-03
-1.222208900000000108e-03
-4.633767600000000646e-03
-6.085090000000000464e-03
-1.283810000000000165e-05
-5.786183700000000103e-03
-1.804460900000000225e-03
-1.283810000000000165e-05
0.000000000000000000e+00
-1.159494600000000051e-03
-1.666750800000000102e-03
-3.911046700000000292e-03
-5.638491100000000283e-03
-6.503399100000000453e-03
-6.229624500000000183e-03
-4.190096900000000665e-03
-2.285629500000000130e-03
-1.354982200000000086e-03
-3.047518100000000396e-03
-1.283810000000000165e-05
-5.136002300000000291e-03
-6.359663200000000710e-03
-6.429540700000000754e-03
-5.098359200000000292e-03
-2.814593100000000250e-03
-1.464354099999999994e-03
-2.207148900000000229e-03
-4.542993400000000515e-03
-1.282600000000000053e-05
-6.030809400000000826e-03
-6.488673400000000493e-03
-5.874610500000000332e-03
-3.473377600000000353e-03
-1.882251800000000206e-03
-1.622247000000000055e-03
-3.795552200000000282e-03
-1.278970000000000055e-05
-5.580532100000000495e-03
-6.281097900000000116e-03
-4.344263000000000118e-03
-2.363613999999999993e-03
-1.241084900000000027e-03
-1.325155700000000191e-03
-2.927824900000000185e-03
-1.285020000000000107e-05
-5.065834400000000098e-03
-6.326327700000000318e-03
-6.453220400000000100e-03
-5.247152900000000460e-03
-2.906250600000000184e-03
-1.527588700000000101e-03
-1.215094100000000147e-03
-2.100971400000000225e-03
-4.455062699999999890e-03
-5.977920300000000818e-03
-6.497893600000000450e-03
-5.971821900000000294e-03
-1.958893200000000247e-03
-1.280180000000000167e-05
-1.168666399999999982e-03
-1.567434000000000145e-03
-3.675193500000000380e-03
-5.512868900000000502e-03
-6.493150400000000620e-03
-6.318559500000000238e-03
-4.475499600000000175e-03
-2.442566500000000352e-03
-1.269048000000000051e-03
-1.310393699999999996e-03
-2.800545000000000204e-03
-6.290620600000000444e-03
-1.280180000000000167e-05
-6.462815700000000031e-03
-5.368818400000000164e-03
-2.993068100000000238e-03
-1.203502300000000060e-03
-1.281390000000000110e-05
-2.005913800000000066e-03
-4.353688900000000396e-03
-5.909966700000000676e-03
-6.028159500000000552e-03
-1.287440000000000162e-05
-3.709303400000000302e-03
-2.019308500000000211e-03
-1.153843899999999973e-03
-1.514738500000000019e-03
-6.469410200000000159e-03
-1.285020000000000107e-05
-6.347539000000000133e-03
-4.592506599999999876e-03
-2.500719100000000240e-03
-1.296164100000000074e-03
-1.266010900000000012e-03
-1.278970000000000055e-05
-2.667856400000000270e-03
-4.889440600000000310e-03
-6.462452700000000279e-03
-1.280180000000000167e-05
-3.074380100000000289e-03
-1.625768100000000126e-03
-1.188631400000000025e-03
-1.287440000000000162e-05
-1.901115700000000118e-03
-4.239017200000000374e-03
-5.845667300000000240e-03
-6.096984300000000273e-03
-1.278970000000000055e-05
-1.159918100000000051e-03
-1.277760000000000113e-05
-1.460131199999999997e-03
-3.407529400000000423e-03
-5.357831600000000603e-03
-6.447739100000000542e-03
-6.372392400000000297e-03
-2.588565100000000171e-03
-1.277760000000000113e-05
0.000000000000000000e+00
-1.341272899999999997e-03
-1.266579600000000087e-03
-2.556354900000000138e-03
-4.826181799999999973e-03
-6.207929200000000119e-03
-5.616106100000000517e-03
-1.705966900000000040e-03
-1.192624400000000121e-03
1.815000000000000040e-07
-2.274921000000000170e-04
-4.157535800000000670e-03
-5.793298500000000281e-03
-6.534750200000000696e-03
-6.164030400000000166e-03
-3.973809400000000158e-03
-2.174938700000000197e-03
-1.187324600000000006e-03
-1.449555799999999997e-03
-5.309528400000000127e-03
-1.280180000000000167e-05
-6.419969600000000401e-03
-1.281390000000000110e-05
-4.878998300000000378e-03
-2.681323700000000018e-03
-1.394633900000000030e-03
-1.258472600000000051e-03
-6.163921500000000761e-03
-1.275340000000000058e-05
-6.497458000000000226e-03
-5.715096200000000307e-03
-1.751196700000000024e-03
-1.163644900000000010e-03
-1.282600000000000053e-05
0.000000000000000000e+00
-1.719422100000000215e-03
-3.987228300000000315e-03
-5.669951100000000799e-03
-6.460976500000000823e-03
-6.149377300000000678e-03
-4.037939400000000074e-03
-2.173474600000000097e-03
-1.143764600000000010e-03
-1.338635100000000163e-03
-3.109579000000000336e-03
-6.336794200000000696e-03
-1.277760000000000113e-05
-6.370565300000000444e-03
-2.736729600000000016e-03
-1.282600000000000053e-05
-1.442283700000000172e-03
-1.283338100000000004e-03
-2.378230800000000113e-03
-4.736375600000000338e-03
-6.210869500000000543e-03
-6.614936900000000820e-03
-5.949400600000000726e-03
-3.510379400000000240e-03
-1.960550900000000013e-03
-1.301088799999999997e-03
-1.798834400000000160e-03
-4.024290600000000016e-03
-5.752448900000000157e-03
-6.333285200000000198e-03
-4.298646000000000585e-03
-2.373378700000000011e-03
-1.272544900000000109e-03
-1.287440000000000162e-05
-1.415143400000000136e-03
-3.085052300000000122e-03
-6.397693500000000040e-03
-1.276550000000000170e-05
-6.465998000000000578e-03
-2.861904100000000218e-03
-1.281390000000000110e-05
-1.246021700000000173e-03
-2.221342200000000350e-03
-4.560260100000000476e-03
-1.283810000000000165e-05
-6.046176400000000464e-03
-6.516600200000000065e-03
-5.909809400000000379e-03
-3.511456300000000141e-03
-1.177729300000000074e-03
-1.633633100000000038e-03
-3.784880000000000449e-03
-1.281390000000000110e-05
-6.515680600000000461e-03
-6.298558200000000176e-03
-4.372770599999999987e-03
-2.382865100000000104e-03
-1.255447600000000018e-03
-1.283810000000000165e-05
-1.328809900000000113e-03
-2.917176900000000364e-03
-5.061696200000000145e-03
-6.458967900000000227e-03
-5.267916500000000696e-03
-1.532658600000000098e-03
-1.278970000000000055e-05
-1.215457100000000117e-03
-2.082833500000000251e-03
-1.285020000000000107e-05
-4.439937700000000376e-03
-6.490682000000000222e-03
-3.598273800000000196e-03
-1.283810000000000165e-05
-1.955553600000000270e-03
-1.283810000000000165e-05
-1.157970000000000136e-03
-1.550336700000000054e-03
-3.645233900000000200e-03
-5.488898800000000140e-03
-6.310912300000000655e-03
-1.286230000000000050e-05
-2.437702300000000027e-03
-1.260166600000000052e-03
-1.288395899999999995e-03
-1.281390000000000110e-05
-2.764366000000000306e-03
-4.953606900000000028e-03
-6.261314400000000599e-03
-6.441422900000000340e-03
-5.367656800000000436e-03
-2.983581700000000145e-03
-1.174982600000000184e-03
-1.961760900000000200e-03
-4.308313900000000120e-03
-5.869843100000000057e-03
-1.286230000000000050e-05
-6.482986400000000614e-03
-6.008763200000000367e-03
-3.704644900000000299e-03
-2.000783400000000038e-03
-1.119758200000000063e-03
-3.483396400000000285e-03
-1.285020000000000107e-05
-5.384524199999999976e-03
-6.428258100000000530e-03
-6.311190600000000581e-03
-2.473167400000000210e-03
-1.256512400000000130e-03
-1.214912600000000054e-03
-1.283810000000000165e-05
-2.589932400000000221e-03
-4.822358200000000615e-03
-6.164816900000000786e-03
-6.401541300000000712e-03
-5.429584600000000524e-03
-1.563828200000000031e-03
-1.283810000000000165e-05
-1.110259700000000181e-03
-1.798410900000000159e-03
-4.133033300000000035e-03
-5.739804400000000396e-03
-6.004165200000000611e-03
-1.282600000000000053e-05
-3.746801300000000227e-03
-1.987679100000000042e-03
-1.054224600000000078e-03
-1.345762000000000130e-03
-3.266624900000000397e-03
-5.224126600000000148e-03
-6.316466200000000683e-03
-6.245366600000000663e-03
-4.621074699999999993e-03
-2.463765700000000378e-03
-1.200065900000000033e-03
-1.114470500000000171e-03
-6.033459300000000233e-03
-6.320338200000000066e-03
-5.471341700000000030e-03
-3.035756900000000005e-03
-1.550506100000000140e-03
-1.023079200000000157e-03
-1.650004400000000190e-03
-1.283810000000000165e-05
0.000000000000000000e+00
-3.958466600000000099e-03
-5.609608400000000439e-03
-6.365398600000000615e-03
-6.004794400000000067e-03
-3.830061400000000192e-03
-2.020627400000000237e-03
-1.024930500000000022e-03
-1.278631200000000193e-03
-5.135917600000000464e-03
-1.276550000000000170e-05
-6.273487000000000334e-03
-1.281390000000000110e-05
-4.759849600000000229e-03
-2.556717900000000324e-03
-1.124876500000000085e-03
-1.286230000000000050e-05
-2.298866899999999977e-03
-4.603965300000000330e-03
-6.029877700000000132e-03
-5.628121399999999955e-03
-1.278970000000000055e-05
-3.200365300000000256e-03
-1.680460100000000191e-03
-1.091044900000000088e-03
-3.922989400000000126e-03
-1.283810000000000165e-05
-5.623789600000000770e-03
-6.138886600000000721e-03
-1.287440000000000162e-05
-2.169167000000000057e-03
-1.129280900000000174e-03
-3.076691200000000390e-03
-5.140818100000000591e-03
-6.329715700000000320e-03
-1.283810000000000165e-05
0.000000000000000000e+00
-4.970389600000000609e-03
-1.379932400000000083e-03
-1.285020000000000107e-05
0.000000000000000000e+00
-1.178987700000000069e-03
-2.235208800000000086e-03
-4.573630600000000608e-03
-6.030906200000000009e-03
-5.780375700000000595e-03
-3.349897100000000152e-03
-1.280180000000000167e-05
-1.794744600000000015e-03
-1.124283599999999998e-03
-1.622561600000000217e-03
-5.589280400000000426e-03
-6.476633900000000610e-03
-4.206407700000000353e-03
-1.282600000000000053e-05
0.000000000000000000e+00
-1.179737900000000020e-03
-1.316625200000000155e-03
-5.088594500000000707e-03
-6.408631900000000443e-03
-5.121712200000000555e-03
-1.283810000000000165e-05
0.000000000000000000e+00
0.000000000000000000e+00
-1.454855600000000112e-03
-1.185061900000000147e-03
-1.278970000000000055e-05
-2.152190700000000245e-03
-4.491846700000000532e-03
-5.991883700000000604e-03
-6.467897700000000034e-03
-5.876643300000000507e-03
-3.479851100000000419e-03
-1.876141300000000109e-03
-1.127974100000000155e-03
-3.727453400000000066e-03
-5.531781200000000440e-03
-6.472060100000000434e-03
-4.350833300000000667e-03
-1.285020000000000107e-05
-1.217998100000000118e-03
-1.285020000000000107e-05
-1.288238600000000131e-03
-2.861408000000000180e-03
-6.288103800000000021e-03
-1.286230000000000050e-05
0.000000000000000000e+00
-2.899583500000000019e-03
-1.286230000000000050e-05
-1.507974600000000021e-03
-1.183222700000000072e-03
-2.041717699999999990e-03
-1.287440000000000162e-05
-5.932472700000000071e-03
-6.469519100000000432e-03
-5.963412400000000536e-03
-3.592381100000000427e-03
-1.945776800000000029e-03
-1.285020000000000107e-05
-1.136335200000000104e-03
-1.522192100000000154e-03
-5.460851000000000073e-03
-6.299477800000000648e-03
-4.481501200000000650e-03
-2.435149200000000236e-03
-1.248962000000000162e-03
-1.285020000000000107e-05
-1.272520700000000097e-03
-1.278970000000000055e-05
-2.734721000000000287e-03
-4.933303100000000462e-03
-6.248367400000000467e-03
-5.381305600000000494e-03
-1.286230000000000050e-05
-2.995609100000000240e-03
-1.570362200000000128e-03
-1.173373300000000010e-03
-4.297605400000000485e-03
-6.486979400000000492e-03
-6.024493200000000624e-03
-3.728445600000000141e-03
-1.015021447000000049e-01
-2.849550000000000187e-05
-3.485634900000000348e-03
-5.397253400000000430e-03
-6.444218000000000689e-03
-1.291070000000000160e-05
0.000000000000000000e+00
-4.615182000000000659e-03
-2.513980700000000099e-03
-1.294651600000000166e-03
-1.252797700000000177e-03
-1.277760000000000113e-05
-2.625324900000000367e-03
-4.859384200000000514e-03
-6.208038100000000392e-03
-6.450473700000000643e-03
-5.502039400000000371e-03
-3.089263100000000112e-03
-1.176579800000000136e-03
-1.862940200000000063e-03
-4.199486500000000275e-03
-1.285020000000000107e-05
-5.812501200000000368e-03
-6.489181600000000320e-03
-6.099501100000000696e-03
-3.855628700000000072e-03
-2.092307800000000120e-03
-1.157897400000000099e-03
-1.444183400000000062e-03
-3.360194200000000443e-03
-5.330243600000000338e-03
-6.367141000000000640e-03
-4.756679399999999905e-03
-2.600435199999999968e-03
-1.285020000000000107e-05
-1.336602299999999988e-03
-1.245344100000000042e-03
-2.496254200000000336e-03
-4.779863000000000514e-03
-6.463009300000000130e-03
-3.194581500000000327e-03
-1.282600000000000053e-05
-1.173808900000000016e-03
-1.281390000000000110e-05
-1.791550200000000112e-03
-5.753804099999999984e-03
-6.513345300000000782e-03
-6.156540500000000013e-03
-3.992866900000000170e-03
-1.283810000000000165e-05
0.000000000000000000e+00
-2.176318100000000037e-03
-1.173942000000000084e-03
-1.417079400000000045e-03
-3.252068600000000091e-03
-5.266355600000000546e-03
-6.415589400000000324e-03
-6.404880900000000689e-03
-4.895163899999999992e-03
-2.688063400000000221e-03
-1.391802500000000097e-03
-4.698417900000000612e-03
-1.287440000000000162e-05
-6.482381400000000737e-03
-5.731975700000000069e-03
-3.307873800000000076e-03
-1.287440000000000162e-05
0.000000000000000000e+00
-1.780236700000000167e-03
-1.177922900000000174e-03
-1.725121200000000101e-03
-3.984360600000000363e-03
-5.698458700000000668e-03
-6.516225100000000089e-03
-4.129729999999999859e-03
-1.283810000000000165e-05
-2.247901700000000304e-03
-1.202873100000000171e-03
-1.381928900000000023e-03
-3.132823100000000326e-03
-6.389501800000000828e-03
-1.285020000000000107e-05
-6.427362700000000505e-03
-5.043437300000000109e-03
-2.777034700000000078e-03
-1.443384800000000086e-03
-2.274969400000000086e-03
-1.276550000000000170e-05
-4.616440400000000437e-03
-6.080262100000000808e-03
-6.495267900000000622e-03
-5.837766000000000309e-03
-3.410288200000000103e-03
-1.853296500000000107e-03
-1.168327600000000025e-03
-1.660737100000000055e-03
-3.871564400000000218e-03
-6.515813700000000312e-03
-6.256764800000000001e-03
-1.277760000000000113e-05
-4.254856100000000037e-03
-2.321856900000000053e-03
-1.218590999999999988e-03
-1.348472400000000002e-03
-3.006124000000000209e-03
-6.352040200000000705e-03
-5.159185900000000033e-03
-1.280180000000000167e-05
-1.483484200000000043e-03
-1.281390000000000110e-05
-1.209261899999999976e-03
-1.278970000000000055e-05
-2.165742700000000253e-03
-4.507649300000000393e-03
-6.011534100000000269e-03
-6.498849500000000723e-03
-5.910269200000000181e-03
-3.525552800000000212e-03
-1.912138800000000131e-03
-1.165266299999999974e-03
-1.598615700000000084e-03
-3.739759100000000086e-03
-6.502128600000000452e-03
-1.283810000000000165e-05
-6.298679200000000672e-03
-2.388431100000000355e-03
-1.251878100000000139e-03
-1.283810000000000165e-05
-1.313140400000000103e-03
-2.872564200000000262e-03
-5.034398600000000029e-03
-6.458629100000000053e-03
-1.285020000000000107e-05
-5.294342900000000365e-03
-1.548424900000000158e-03
-1.225947800000000074e-03
-2.069862300000000106e-03
-1.281390000000000110e-05
-4.429132400000000691e-03
-5.969184100000000243e-03
-6.517773900000000016e-03
-6.013482200000000617e-03
-3.646673800000000288e-03
-1.996572600000000048e-03
-1.567494500000000176e-03
-3.642753400000000447e-03
-1.281390000000000110e-05
-5.503249400000000124e-03
-6.350709200000000457e-03
-4.545945800000000293e-03
-2.491486800000000060e-03
-1.301415500000000164e-03
-1.283810000000000165e-05
-2.772085800000000360e-03
-1.283810000000000165e-05
-4.975181200000000463e-03
-6.296489100000000200e-03
-5.435465200000000503e-03
-3.051402200000000002e-03
-1.286230000000000050e-05
-1.623408600000000217e-03
-1.224023900000000172e-03
-4.335381600000000335e-03
-5.911939000000000603e-03
-6.079233600000000064e-03
-3.784686400000000350e-03
-1.282600000000000053e-05
-2.065336899999999955e-03
-1.167637900000000105e-03
-1.502844199999999993e-03
-1.283810000000000165e-05
-3.489882000000000140e-03
-6.437151600000000536e-03
-1.283810000000000165e-05
-6.322746100000000216e-03
-4.602126100000000254e-03
-2.494983700000000335e-03
-1.269991800000000101e-03
-1.222801799999999979e-03
-4.825298500000000171e-03
-1.287440000000000162e-05
-6.176287700000000595e-03
-6.422692100000000279e-03
-5.482231700000000409e-03
-3.089722900000000348e-03
-1.645926700000000052e-03
-1.207713100000000050e-03
-4.281161500000000078e-03
-5.921933600000000089e-03
-6.632687600000000162e-03
-1.280180000000000167e-05
-6.256631700000000150e-03
-4.032530700000000121e-03
-2.260727699999999941e-03
-1.314519800000000160e-03
-1.597575100000000201e-03
-3.500275900000000048e-03
-5.462569200000000520e-03
-6.563693400000000788e-03
-6.499841700000000798e-03
-4.889416400000000731e-03
-2.713146700000000286e-03
-1.433027200000000197e-03
-1.326498800000000013e-03
-2.567208600000000281e-03
-4.834700200000000003e-03
-6.223840700000000253e-03
-3.251971800000000041e-03
-1.291070000000000160e-05
0.000000000000000000e+00
-1.753616700000000181e-03
-1.213363800000000128e-03
-1.825309200000000071e-03
-4.128072300000000527e-03
-6.552706600000000360e-03
-6.197244900000000063e-03
-1.281390000000000110e-05
-4.038786400000000075e-03
-2.210694200000000095e-03
-1.200743500000000163e-03
-1.436657200000000106e-03
-3.273727600000000352e-03
-5.284203099999999938e-03
-6.436764400000000337e-03
-6.430327200000000507e-03
-4.924119200000000307e-03
-2.712323900000000298e-03
-1.408911900000000194e-03
-1.251974900000000189e-03
-2.401366000000000264e-03
-4.703705600000000070e-03
-6.137156300000000050e-03
-6.496235900000000250e-03
-5.753598400000000529e-03
-3.326193200000000360e-03
-1.787787100000000134e-03
-1.185098200000000166e-03
-3.984614699999999843e-03
-1.278970000000000055e-05
-5.698361900000000618e-03
-6.516890600000000214e-03
-6.226321200000000007e-03
-4.138272600000000336e-03
-2.254580900000000259e-03
-1.204071000000000134e-03
-1.376471800000000044e-03
-3.116234000000000278e-03
-5.187463600000000001e-03
-6.424628100000000404e-03
-1.285020000000000107e-05
-5.047043100000000657e-03
-2.773900799999999989e-03
-1.229517300000000169e-03
-1.282600000000000053e-05
-2.259711300000000287e-03
-4.603166700000000354e-03
-6.480723700000000538e-03
-3.409743700000000041e-03
-1.845697700000000115e-03
-1.281390000000000110e-05
-1.158853300000000155e-03
3.630000000000000079e-08
-6.506520900000000752e-03
-6.244979400000000465e-03
-1.281390000000000110e-05
-4.260349500000000685e-03
-1.281390000000000110e-05
-2.319352200000000287e-03
-1.206454700000000055e-03
-1.333625700000000197e-03
-2.976333800000000116e-03
-5.089889200000000287e-03
-6.332486600000000222e-03
-6.424398200000000503e-03
-5.152518800000000301e-03
-2.840680700000000180e-03
-1.470258900000000202e-03
-1.189333200000000168e-03
-2.134911900000000060e-03
-4.473805600000000174e-03
-5.976444100000000495e-03
-6.465090500000000330e-03
-5.885645700000000785e-03
-3.501570600000000061e-03
-1.872523400000000206e-03
-1.543669600000000105e-03
-1.278970000000000055e-05
-3.683288400000000410e-03
-5.498990200000000543e-03
-2.337828900000000001e-03
-1.183670400000000084e-03
-1.244993200000000079e-03
-1.283810000000000165e-05
0.000000000000000000e+00
-2.792099200000000211e-03
-1.283810000000000165e-05
-6.236993400000000708e-03
-6.375320600000000497e-03
-5.223170700000000742e-03
-1.283810000000000165e-05
-1.450281800000000152e-03
-1.114676200000000060e-03
-1.949479400000000192e-03
-1.278970000000000055e-05
-5.850204800000000614e-03
-1.286230000000000050e-05
-6.399460100000000512e-03
-3.533200000000000229e-03
-1.281390000000000110e-05
-1.871615900000000174e-03
-1.042172999999999971e-03
-1.429264100000000003e-03
-3.509000000000000400e-03
-5.369846900000000041e-03
-6.385436200000000478e-03
-4.414176799999999963e-03
-1.287440000000000162e-05
-2.361932100000000215e-03
-1.169440800000000162e-03
-1.188304700000000075e-03
-2.653844600000000026e-03
-6.187008300000000453e-03
-6.382096600000000501e-03
-1.285020000000000107e-05
-5.340020400000000146e-03
-2.949858999999999988e-03
-1.527274100000000157e-03
-1.126497900000000048e-03
-1.905943600000000208e-03
-4.255328000000000062e-03
-5.840452200000000385e-03
-6.474431700000000782e-03
-6.012272199999999997e-03
-3.722371400000000063e-03
-2.006252600000000240e-03
-1.124465100000000091e-03
-3.479681700000000332e-03
-1.278970000000000055e-05
-5.398221400000000059e-03
-6.458665400000000723e-03
-6.352451600000000483e-03
-2.528125600000000195e-03
-1.282600000000000053e-05
-1.264837200000000061e-03
-1.285020000000000107e-05
-2.626740600000000009e-03
-4.881248900000000231e-03
-6.239812700000000635e-03
-6.488516100000000196e-03
-5.548346100000000475e-03
-1.667125900000000077e-03
-1.207616300000000000e-03
-1.277760000000000113e-05
-1.883183500000000033e-03
-4.230039000000000542e-03
-5.850737200000000020e-03
-6.542034400000000527e-03
-3.912462400000000368e-03
-2.140381100000000262e-03
-1.193810200000000078e-03
-1.482213700000000042e-03
-1.285020000000000107e-05
-3.397764700000000405e-03
-6.422026600000000154e-03
-1.278970000000000055e-05
0.000000000000000000e+00
-4.822055700000000243e-03
-1.384530400000000055e-03
-1.284608600000000005e-03
-2.528403900000000121e-03
-1.280180000000000167e-05
-6.519879300000000662e-03
-5.682450400000000484e-03
-1.281390000000000110e-05
-1.759521500000000172e-03
-1.285020000000000107e-05
0.000000000000000000e+00
-1.827269400000000208e-03
-1.282600000000000053e-05
-6.564153200000000590e-03
-6.210070900000000567e-03
-4.065442700000000513e-03
-1.444727900000000124e-03
-1.285020000000000107e-05
-3.272941100000000166e-03
-1.281390000000000110e-05
0.000000000000000000e+00
0.000000000000000000e+00
-6.450558400000000470e-03
-1.287440000000000162e-05
-6.454696600000000423e-03
-2.734878300000000151e-03
-1.266567500000000080e-03
-1.278970000000000055e-05
0.000000000000000000e+00
-4.721032800000000279e-03
-6.518512000000000611e-03
-1.281390000000000110e-05
0.000000000000000000e+00
-5.785215700000000474e-03
-3.352063000000000178e-03
-4.003648000000000276e-03
-1.280180000000000167e-05
0.000000000000000000e+00
0.000000000000000000e+00
-6.547999700000000332e-03
-1.286230000000000050e-05
-1.233183600000000097e-03
-1.404253400000000191e-03
-1.282600000000000053e-05
0.000000000000000000e+00
0.000000000000000000e+00
-3.136646700000000117e-03
-5.211784600000000760e-03
-6.415444200000000249e-03
-6.459149400000000103e-03
-2.814871400000000176e-03
-1.285020000000000107e-05
-1.474058300000000198e-03
-2.286645900000000217e-03
-4.623168000000000416e-03
-1.285020000000000107e-05
-6.092156400000000617e-03
-6.525384800000000665e-03
-3.452093700000000067e-03
-1.281390000000000110e-05
-1.678512000000000060e-03
-3.882055100000000175e-03
-6.551133600000000855e-03
-2.361036700000000189e-03
-1.280180000000000167e-05
0.000000000000000000e+00
-1.253209100000000171e-03
-1.278970000000000055e-05
0.000000000000000000e+00
-1.368957700000000095e-03
-1.282600000000000053e-05
-6.482345100000000068e-03
-1.278970000000000055e-05
-2.893315700000000275e-03
-1.283810000000000165e-05
0.000000000000000000e+00
0.000000000000000000e+00
-2.189422400000000032e-03
-1.283810000000000165e-05
-6.534302500000000249e-03
-5.961827300000000808e-03
-1.192636500000000127e-03
-6.530454700000000445e-03
-1.283810000000000165e-05
-6.335910900000000026e-03
-1.283810000000000165e-05
0.000000000000000000e+00
0.000000000000000000e+00
0.000000000000000000e+00
0.000000000000000000e+00
0.000000000000000000e+00
0.000000000000000000e+00
-4.443168400000000080e-03
-1.340220200000000108e-03
-1.285020000000000107e-05
0.000000000000000000e+00
-6.340956600000000228e-03
-6.485418500000000343e-03
-1.289860000000000048e-05
-1.573242000000000087e-03
-1.280180000000000167e-05
-1.235107499999999999e-03
-6.037682200000000013e-03
-1.281390000000000110e-05
-3.674491700000000454e-03
-1.285020000000000107e-05
0.000000000000000000e+00
-2.013246399999999922e-03
-1.563610400000000136e-03
-1.281390000000000110e-05
-3.636352500000000418e-03
-5.496812200000000294e-03
-6.518838700000000562e-03
-6.368133200000000715e-03
-4.568838999999999886e-03
-2.501662900000000290e-03
-1.281390000000000110e-05
0.000000000000000000e+00
-1.310442100000000021e-03
-1.282600000000000053e-05
-2.765249300000000108e-03
-1.286230000000000050e-05
-6.296198700000000051e-03
-3.059073600000000032e-03
-1.281390000000000110e-05
-1.622355900000000111e-03
-1.282600000000000053e-05
-1.211923900000000040e-03
-1.980818400000000212e-03
-4.322156300000000277e-03
-5.905102500000000351e-03
-1.285020000000000107e-05
-6.531967200000000570e-03
-6.086590400000000366e-03
-3.793676700000000405e-03
-2.065373200000000190e-03
-1.502408600000000203e-03
-1.281390000000000110e-05
-5.417823400000000567e-03
-6.474322800000000509e-03
-1.239040000000000084e-05
-4.673951700000000646e-03
-1.322578400000000171e-03
-1.278970000000000055e-05
-1.262901200000000152e-03
-2.616733900000000300e-03
-4.863703900000000344e-03
-5.554178300000000429e-03
-1.278970000000000055e-05
-1.665637600000000182e-03
-1.283810000000000165e-05
0.000000000000000000e+00
-1.191474900000000182e-03
-1.866098300000000165e-03
-4.205766400000000675e-03
-5.828945100000000774e-03
-6.518971800000000413e-03
-6.138632500000000373e-03
-3.895171500000000394e-03
-1.453766600000000204e-03
-1.278970000000000055e-05
0.000000000000000000e+00
-3.367321100000000410e-03
-5.337842400000000764e-03
-6.397620900000000436e-03
-1.277760000000000113e-05
-4.809846800000000706e-03
-2.640958100000000142e-03
-1.374983500000000148e-03
-1.270524200000000157e-03
-4.797783100000000377e-03
-6.198007200000000237e-03
-6.506617700000000802e-03
-1.281390000000000110e-05
-5.678723600000000309e-03
-3.252758300000000227e-03
-1.200658800000000120e-03
-1.278970000000000055e-05
-1.813669000000000175e-03
-5.780242600000000744e-03
-1.286230000000000050e-05
-6.553263200000000212e-03
-4.052035900000000579e-03
-1.286230000000000050e-05
-2.213658700000000097e-03
-1.434200900000000148e-03
-3.272699100000000041e-03
-6.443358900000000465e-03
-1.281390000000000110e-05
0.000000000000000000e+00
-6.445597400000000095e-03
-4.953038199999999953e-03
-1.427086100000000187e-03
-1.277760000000000113e-05
-2.406399600000000243e-03
-6.151942500000000258e-03
-6.512486200000000558e-03
-1.278970000000000055e-05
0.000000000000000000e+00
-5.779698100000000248e-03
-3.340459100000000084e-03
-1.712621900000000199e-03
-3.961140699999999952e-03
-1.275340000000000058e-05
0.000000000000000000e+00
-5.667918300000000624e-03
-6.481788500000000217e-03
-6.179058600000000498e-03
-4.098463600000000311e-03
-1.142385200000000170e-03
-1.275340000000000058e-05
-1.318754800000000163e-03
-5.115674300000000278e-03
-1.285020000000000107e-05
-6.305443100000000453e-03
-2.704035400000000169e-03
-1.277760000000000113e-05
0.000000000000000000e+00
-1.390326299999999991e-03
-1.196653700000000018e-03
-2.271920200000000258e-03
-4.639212600000000401e-03
-6.151180200000000084e-03
-6.612892000000000423e-03
-3.576953600000000108e-03
-1.278970000000000055e-05
-2.004389200000000152e-03
-1.305154400000000129e-03
-1.793341000000000162e-03
-3.990338000000000392e-03
-5.743591700000000820e-03
-6.643299300000000615e-03
-6.379228900000000549e-03
-4.388621599999999873e-03
-2.426170999999999970e-03
-1.303896000000000135e-03
-3.049248400000000199e-03
-1.281390000000000110e-05
-5.161424400000000530e-03
-6.403126400000000440e-03
-6.492823700000000670e-03
-5.226619200000000125e-03
-2.902693200000000095e-03
-1.528157400000000176e-03
-1.243783200000000110e-03
-2.181012900000000275e-03
-4.528884800000000654e-03
-6.040029600000000783e-03
-6.525602600000000343e-03
-5.952486100000000356e-03
-3.561864900000000396e-03
-1.932599900000000212e-03
-1.182036900000000114e-03
-1.601616500000000104e-03
-3.731797300000000341e-03
-5.563943000000000014e-03
-6.510683300000000284e-03
-6.313840500000000855e-03
-2.405879300000000193e-03
-1.283810000000000165e-05
-1.256028400000000099e-03
-1.315197400000000074e-03
-2.853288900000000138e-03
-5.022697900000000319e-03
-6.314264000000000855e-03
-6.451199700000000148e-03
-5.317780600000000454e-03
-2.944123600000000084e-03
-1.542011900000000123e-03
-1.202243900000000065e-03
-2.039551799999999963e-03
-4.399765700000000598e-03
-5.942866599999999978e-03
-6.500192600000000327e-03
-5.997994200000000484e-03
-3.639038700000000060e-03
-1.977696600000000346e-03
-1.142385200000000170e-03
-1.523002800000000136e-03
-3.590711300000000439e-03
-5.459895100000000667e-03
-6.477892300000000388e-03
-6.322758200000000439e-03
-2.459107200000000375e-03
-1.283810000000000165e-05
-1.260880499999999984e-03
-1.270669400000000015e-03
-2.714102600000000125e-03
-4.919666400000000626e-03
-6.248573100000000789e-03
-6.448380400000000220e-03
-5.404102000000000038e-03
-3.016880900000000303e-03
-1.576037100000000002e-03
-1.168242899999999982e-03
-1.920996000000000118e-03
-4.263156700000000389e-03
-5.853120900000000591e-03
-6.478461000000000462e-03
-6.031934700000000753e-03
-3.741501500000000112e-03
-1.442670900000000153e-03
-3.427325000000000163e-03
-5.359477200000000580e-03
-6.413145200000000372e-03
-1.285020000000000107e-05
-6.319515400000000512e-03
-1.283810000000000165e-05
-4.609821700000000730e-03
-2.485606200000000082e-03
-1.255992100000000080e-03
-1.200126400000000064e-03
-2.539221300000000028e-03
-4.785743600000000493e-03
-6.149958100000000108e-03
-6.391026400000000308e-03
-5.463416200000000521e-03
-3.035672200000000178e-03
-1.568305200000000158e-03
-1.097687800000000024e-03
-1.757149900000000041e-03
-4.090138800000000380e-03
-5.709590700000000303e-03
-6.404844600000000020e-03
-3.777547400000000159e-03
-1.039716700000000013e-03
-1.321332100000000183e-03
-5.190863700000000226e-03
-1.280180000000000167e-05
0.000000000000000000e+00
0.000000000000000000e+00
-6.242680400000000587e-03
-4.647936699999999886e-03
-2.472731799999999987e-03
-1.286230000000000050e-05
-1.197803200000000174e-03
-1.092182300000000021e-03
-2.323853399999999993e-03
-4.604437200000000355e-03
-6.003705400000000809e-03
-5.476278499999999959e-03
-1.285020000000000107e-05
-3.049018500000000298e-03
-1.546609900000000095e-03
-9.944990000000000340e-04
-3.897930300000000074e-03
-5.573768200000000714e-03
-5.999446200000000361e-03
-3.857334800000000296e-03
-1.281390000000000110e-05
-2.015194500000000270e-03
-1.280180000000000167e-05
-1.013617000000000077e-03
-1.241726200000000139e-03
-3.062582600000000096e-03
-5.100658200000000170e-03
-6.256486500000000076e-03
-4.784231100000000368e-03
-1.278970000000000055e-05
-2.558678100000000028e-03
-1.260735300000000126e-03
-1.104076600000000047e-03
-2.238608900000000311e-03
-4.559969700000000327e-03
-6.000571500000000287e-03
-6.365882600000000863e-03
-5.640257700000000755e-03
-3.207213900000000298e-03
-1.070922599999999964e-03
-1.610824600000000054e-03
-3.876259200000000456e-03
-6.427350600000000282e-03
-1.286230000000000050e-05
-6.134736300000000545e-03
-1.283810000000000165e-05
-4.070391600000000665e-03
-2.179657700000000014e-03
-1.119516200000000156e-03
-1.298075900000000187e-03
-3.026331000000000160e-03
-5.104082499999999974e-03
-6.313223400000000755e-03
-6.361417700000000092e-03
-4.991939700000000597e-03
-2.717502700000000351e-03
-1.380634200000000009e-03
-2.197856100000000236e-03
-1.283810000000000165e-05
-4.534971100000000088e-03
-6.438240600000000660e-03
-1.281390000000000110e-05
-5.785227800000000697e-03
-3.373310600000000228e-03
-1.799693500000000166e-03
-2.537553920000000171e-02
-5.563471099999999989e-03
-6.466010100000000801e-03
-4.231357900000000567e-03
-1.289860000000000048e-05
0.000000000000000000e+00
-2.280632199999999953e-03
-1.174692200000000035e-03
-2.932265600000000076e-03
-1.291070000000000160e-05
-5.057424900000000341e-03
-5.136619400000000391e-03
-2.821550600000000131e-03
-1.283810000000000165e-05
-1.453476200000000055e-03
-1.289860000000000048e-05
-1.173046600000000059e-03
-4.456417900000000584e-03
-1.288650000000000105e-05
-6.452373400000000099e-03
-1.285020000000000107e-05
-5.885924000000000711e-03
-1.871373900000000050e-03
-1.281390000000000110e-05
-1.120980300000000039e-03
-3.686289200000000214e-03
-1.281390000000000110e-05
-5.505112800000000646e-03
-6.458399200000000152e-03
-6.256740600000000423e-03
-4.366418099999999983e-03
-2.360032400000000325e-03
-1.209866900000000070e-03
-1.277021900000000019e-03
-2.817775400000000364e-03
-4.985684000000000643e-03
-6.272627900000000110e-03
-5.266791200000000769e-03
-1.280180000000000167e-05
-2.907315400000000296e-03
-1.506062800000000125e-03
-2.012181600000000244e-03
-4.368450900000000157e-03
-5.903783600000000326e-03
-5.957326100000000235e-03
-3.612902700000000106e-03
-1.277760000000000113e-05
0.000000000000000000e+00
-1.949854500000000167e-03
-1.505469900000000038e-03
-1.285020000000000107e-05
-3.573480900000000279e-03
-5.438405500000000059e-03
-6.296719000000000101e-03
-4.497836199999999916e-03
-1.283810000000000165e-05
-2.434544200000000359e-03
-1.245017400000000092e-03
-1.251309400000000065e-03
-2.704761400000000107e-03
-4.910313099999999951e-03
-6.230253700000000505e-03
-5.385746299999999952e-03
-2.995137200000000215e-03
-1.569200600000000183e-03
-1.285020000000000107e-05
-1.920657200000000162e-03
-4.271312100000000667e-03
-5.850737200000000020e-03
-1.282600000000000053e-05
-6.474504300000000385e-03
-6.029672000000000677e-03
-2.014589499999999960e-03
-1.283810000000000165e-05
-1.130938600000000157e-03
-1.456743199999999995e-03
-3.450968400000000141e-03
-5.372847700000000712e-03
-6.432432600000000285e-03
-4.635328499999999928e-03
-2.515202800000000075e-03
-1.276550000000000170e-05
-1.282745200000000134e-03
-1.242742600000000010e-03
-6.196978700000000360e-03
-1.289860000000000048e-05
0.000000000000000000e+00
-6.440261300000000612e-03
-3.085935600000000358e-03
-1.624388700000000069e-03
-1.287440000000000162e-05
-1.159748700000000181e-03
-1.835618400000000152e-03
-4.177416100000000236e-03
-5.790370300000000081e-03
-6.491819400000000372e-03
-6.089615400000000615e-03
-3.859464400000000087e-03
-2.090807400000000218e-03
-1.136153700000000011e-03
-1.427848400000000144e-03
-5.307882800000000151e-03
-6.422462200000000378e-03
-6.361841200000000092e-03
-2.596805200000000275e-03
-1.328253300000000045e-03
-1.280180000000000167e-05
0.000000000000000000e+00
-1.225863100000000030e-03
-2.477668600000000349e-03
-4.753122000000000250e-03
-6.153079900000000407e-03
-6.457818400000000722e-03
-5.615852000000000170e-03
-3.189136500000000138e-03
-1.692209200000000142e-03
-1.153747100000000140e-03
-1.762413400000000137e-03
-4.063131600000000412e-03
-5.732943700000000566e-03
-6.493271400000000249e-03
-6.147538100000000602e-03
-2.155542400000000011e-03
-1.282600000000000053e-05
-1.155259600000000048e-03
-1.385728300000000019e-03
-3.217801400000000304e-03
-5.239590400000000703e-03
-6.386585700000000851e-03
-1.278970000000000055e-05
-4.892840700000000535e-03
-2.668993799999999986e-03
-1.215674900000000011e-03
-2.352191600000000209e-03
-1.283810000000000165e-05
-4.672027800000000744e-03
-6.104244300000000525e-03
-6.458689600000000301e-03
-5.722598200000000683e-03
-3.279160500000000318e-03
-1.755722100000000176e-03
-1.689595600000000104e-03
-1.281390000000000110e-05
-3.957171900000000520e-03
-5.662074000000000447e-03
-6.499176200000000674e-03
-6.192767900000000804e-03
-4.108095200000000044e-03
-2.232304800000000332e-03
-1.169307700000000094e-03
-1.357063400000000069e-03
-3.103311200000000158e-03
-5.167050900000000162e-03
-6.367395100000000120e-03
-5.017555400000000068e-03
-2.752774200000000001e-03
-1.282600000000000053e-05
-1.414417400000000198e-03
-1.204748600000000048e-03
-2.251810000000000356e-03
-6.050072600000000293e-03
-1.283810000000000165e-05
-6.475871600000000436e-03
-3.393856400000000353e-03
-1.823373200000000163e-03
-1.277760000000000113e-05
-1.143232200000000170e-03
-1.637263100000000164e-03
-3.842911600000000275e-03
-5.605421800000000461e-03
-6.494675000000000101e-03
-6.241252600000000289e-03
-4.244292800000000476e-03
-2.301407899999999979e-03
-1.205111600000000017e-03
-1.324587000000000117e-03
-2.982420100000000417e-03
-5.093966899999999992e-03
-6.329437400000000394e-03
-6.424531300000000354e-03
-5.148138600000000224e-03
-2.828012000000000407e-03
-1.464644500000000142e-03
-1.194536200000000017e-03
-2.135250700000000234e-03
-4.491653100000000433e-03
-5.987878600000000502e-03
-6.471092100000000805e-03
-5.891078600000000318e-03
-1.882820500000000064e-03
-1.130914400000000144e-03
-1.283810000000000165e-05
-1.566066700000000094e-03
-5.519608600000000705e-03
-6.472943400000000236e-03
-1.281390000000000110e-05
-6.259850300000000499e-03
-1.210435600000000144e-03
-1.285020000000000107e-05
0.000000000000000000e+00
-1.290210900000000058e-03
-5.001498700000000727e-03
-1.278970000000000055e-05
-6.422099200000000625e-03
-5.261176800000000493e-03
-2.907787300000000321e-03
-1.510152600000000053e-03
-1.174050900000000140e-03
-2.035534600000000072e-03
-1.283810000000000165e-05
-4.382668400000000290e-03
-6.482817000000000093e-03
-1.285020000000000107e-05
-5.958451400000000162e-03
-3.607929600000000375e-03
-1.944094900000000034e-03
-1.126171200000000098e-03
-1.518174900000000046e-03
-3.597801900000000171e-03
-5.463029000000000322e-03
-6.314965800000000781e-03
-1.285020000000000107e-05
-2.443957999999999981e-03
-1.263566700000000060e-03
-1.278970000000000055e-05
-2.740783100000000142e-03
-1.286230000000000050e-05
-6.262826900000000724e-03
-6.457370700000000276e-03
-1.283810000000000165e-05
-3.009233700000000285e-03
-1.281390000000000110e-05
-1.583248700000000012e-03
-1.190337500000000033e-03
-1.956557900000000134e-03
-4.314000899999999999e-03
-5.886783100000000067e-03
-6.499817500000000352e-03
-3.737012400000000196e-03
-2.035534600000000072e-03
-1.285020000000000107e-05
-1.153686600000000109e-03
-1.492038900000000091e-03
-3.499598300000000134e-03
-5.406122699999999989e-03
-6.350055800000000555e-03
-4.640192700000000253e-03
-1.283810000000000165e-05
-2.530654499999999973e-03
-1.302480300000000060e-03
-1.268999600000000026e-03
-4.863570800000000492e-03
-1.281390000000000110e-05
-6.215649000000000174e-03
-6.446396000000000071e-03
-5.487592000000000338e-03
-3.063865200000000320e-03
-1.594344400000000063e-03
-1.118064200000000062e-03
-1.804327800000000157e-03
-4.129947800000000405e-03
-5.742151800000000299e-03
-6.439535300000000240e-03
-6.033689200000000134e-03
-3.797718100000000308e-03
-2.030343700000000230e-03
-1.071830099999999996e-03
-1.368243800000000163e-03
-3.298895600000000244e-03
-6.401541300000000712e-03
-1.283810000000000165e-05
-6.368653500000000765e-03
-4.785658900000000666e-03
-1.413860800000000129e-03
-1.342845900000000153e-03
-1.283810000000000165e-05
-2.620218700000000352e-03
-4.903706500000000468e-03
-6.298134700000000176e-03
-6.589248600000000011e-03
-3.307305100000000435e-03
-1.277760000000000113e-05
-1.802912100000000082e-03
-1.272399700000000035e-03
-1.879142100000000129e-03
-4.179424699999999965e-03
-6.565617300000000690e-03
-4.030207500000000664e-03
-1.285020000000000107e-05
0.000000000000000000e+00
-2.199090300000000001e-03
-1.198311400000000001e-03
-3.270230700000000077e-03
-5.279375200000000282e-03
-6.428996200000000258e-03
-1.283810000000000165e-05
-6.406720100000000764e-03
-4.902762700000000418e-03
-2.683404900000000218e-03
-1.383514000000000185e-03
-1.241447899999999997e-03
-6.132788200000000196e-03
-6.474262300000000261e-03
-1.278970000000000055e-05
-5.724449500000000114e-03
-1.283810000000000165e-05
-3.283238200000000023e-03
-1.758928600000000085e-03
-1.159349399999999976e-03
-1.715671100000000027e-03
-3.988994899999999920e-03
-6.506714500000000852e-03
-6.191920900000000803e-03
-4.099395300000000138e-03
-2.230030000000000033e-03
-1.169707000000000082e-03
-1.285020000000000107e-05
-5.179731700000000591e-03
-1.282600000000000053e-05
0.000000000000000000e+00
-6.374897100000000497e-03
-6.406357100000000145e-03
-4.998873000000000032e-03
-2.738605100000000327e-03
-1.404918900000000099e-03
-2.261163300000000164e-03
-4.590219700000000222e-03
-1.281390000000000110e-05
-6.054041400000000593e-03
-6.464352400000000602e-03
-5.787442100000000748e-03
-3.370406600000000041e-03
-1.129704400000000174e-03
-1.277760000000000113e-05
-1.630620200000000011e-03
-3.845791400000000450e-03
-5.603159100000000385e-03
-6.219133800000000226e-03
-1.176023200000000067e-03
-1.285020000000000107e-05
0.000000000000000000e+00
0.000000000000000000e+00
-1.301355000000000133e-03
-2.975849800000000302e-03
-5.084867700000000532e-03
-6.317555200000000808e-03
-6.396544000000000535e-03
-5.103646900000000618e-03
-2.789534000000000197e-03
-1.424666100000000031e-03
-1.167250700000000124e-03
-2.125389200000000166e-03
-4.478875499999999954e-03
-5.975016300000000197e-03
-5.847736400000000216e-03
-3.437960900000000194e-03
-1.281390000000000110e-05
-1.833283100000000039e-03
-1.094336100000000041e-03
-3.701886100000000186e-03
-5.491996399999999993e-03
-6.438180100000000412e-03
-1.282600000000000053e-05
-6.213422600000000767e-03
-4.285529599999999932e-03
-2.298237700000000088e-03
-1.152839600000000108e-03
-1.234913900000000116e-03
-4.957333700000000204e-03
-1.281390000000000110e-05
-6.232419600000000531e-03
-6.354363400000000162e-03
-2.814411600000000374e-03
-1.416595400000000013e-03
-1.087511700000000012e-03
-1.283810000000000165e-05
-1.969662200000000130e-03
-4.313371700000000544e-03
-5.843549800000000238e-03
-6.384105200000000230e-03
-5.845594700000000636e-03
-3.488696200000000400e-03
-1.014076800000000096e-03
-1.407980200000000150e-03
-1.248720000000000133e-05
-6.341259100000000599e-03
-1.283810000000000165e-05
-6.173758800000000817e-03
-4.336446400000000014e-03
-2.285919900000000279e-03
-1.108868200000000118e-03
-1.126594700000000098e-03
-2.610054700000000345e-03
-4.805176200000000480e-03
-6.294008600000000446e-03
-1.278970000000000055e-05
-5.218149200000000119e-03
-2.833202900000000250e-03
-1.412566100000000116e-03
-1.031537100000000156e-03
-4.169405900000000033e-03
-5.743156100000000597e-03
-6.345808700000000330e-03
-1.281390000000000110e-05
-3.575029700000000206e-03
-1.876492200000000072e-03
-1.011947200000000088e-03
-1.358624300000000002e-03
-1.280180000000000167e-05
-3.383123700000000272e-03
-5.287203900000000609e-03
-6.344332500000000007e-03
-6.220150200000000747e-03
-4.501042700000000042e-03
-2.402878499999999955e-03
-1.183827700000000165e-03
-1.163039900000000133e-03
-2.537612000000000288e-03
-4.780322800000000316e-03
-6.138027500000000497e-03
-5.409994700000000240e-03
-1.283810000000000165e-05
-1.550469800000000122e-03
-1.099914200000000081e-03
-1.281390000000000110e-05
-1.814866900000000139e-03
-5.762770200000000460e-03
-6.029865600000000776e-03
-1.278970000000000055e-05
-3.783319100000000299e-03
-1.283810000000000165e-05
-2.029690300000000329e-03
-1.091528900000000120e-03
-3.336925900000000441e-03
-5.293895200000000786e-03
-6.395672800000000088e-03
-1.287440000000000162e-05
-6.325238700000000193e-03
-4.690625500000000087e-03
-2.537031199999999990e-03
-1.288057100000000038e-03
-1.200307900000000157e-03
-2.478285700000000015e-03
-6.141984200000000574e-03
-1.285020000000000107e-05
-6.431815500000000185e-03
-5.565153000000000634e-03
-3.140688100000000021e-03
-1.652025100000000142e-03
-1.137375799999999987e-03
-1.762365000000000112e-03
-5.737686900000000395e-03
-1.287440000000000162e-05
-6.475399700000000411e-03
-6.121075400000000263e-03
-3.935246700000000555e-03
-2.117463700000000223e-03
-1.137569400000000086e-03
-1.382316100000000004e-03
-3.238480300000000280e-03
-5.249185700000000634e-03
-6.393349600000000632e-03
-6.369609400000000171e-03
-4.845517599999999911e-03
-2.634424100000000261e-03
-1.213763100000000116e-03
-2.380965400000000214e-03
-1.283810000000000165e-05
-4.686705100000000679e-03
-5.686806400000000115e-03
-3.250495600000000151e-03
-1.281390000000000110e-05
-1.730457300000000018e-03
-1.281390000000000110e-05
-1.142203700000000077e-03
-3.989648300000000689e-03
-5.681482399999999988e-03
-6.498026700000000301e-03
-1.280180000000000167e-05
-6.178284200000000101e-03
-4.069580900000000466e-03
-2.203942400000000103e-03
-1.156687400000000129e-03
-1.364299200000000092e-03
-3.137360600000000267e-03
-5.186628700000000224e-03
-6.377002500000000275e-03
-6.401553400000000067e-03
-4.975120700000000215e-03
-2.724121400000000057e-03
-1.398844700000000021e-03
-1.204797000000000073e-03
-6.069614100000000553e-03
-5.776346400000000048e-03
-1.287440000000000162e-05
0.000000000000000000e+00
0.000000000000000000e+00
-3.354809700000000068e-03
-1.793522500000000039e-03
-1.142070600000000009e-03
-3.879030100000000359e-03
-1.283810000000000165e-05
-5.625035900000000325e-03
-6.491057100000000198e-03
-6.226744700000000007e-03
-4.198191800000000695e-03
-2.270431900000000145e-03
-1.189248500000000125e-03
-1.331774400000000115e-03
-3.020365700000000354e-03
-5.121119300000000034e-03
-6.347151800000000801e-03
-6.415492600000000274e-03
-2.806038399999999985e-03
-1.443663100000000012e-03
-1.283810000000000165e-05
-1.203308700000000177e-03
-2.176451200000000322e-03
-4.530530400000000631e-03
-6.473838800000000261e-03
-5.877478200000000284e-03
-1.867211500000000085e-03
-1.146015200000000079e-03
-1.281390000000000110e-05
-1.600757400000000098e-03
-1.281390000000000110e-05
-5.562696700000000459e-03
-6.269203600000000307e-03
-2.351199400000000134e-03
-1.321126400000000077e-03
-1.283810000000000165e-05
0.000000000000000000e+00
-2.913655800000000077e-03
-1.286230000000000050e-05
0.000000000000000000e+00
-5.053661800000000363e-03
-5.233746100000000526e-03
-2.893860200000000337e-03
-1.506232199999999995e-03
-1.288650000000000105e-05
0.000000000000000000e+00
-1.194766100000000135e-03
-2.102859000000000325e-03
-4.444209000000000180e-03
-5.972898800000000195e-03
-5.948916600000000478e-03
-3.584286200000000398e-03
-1.285020000000000107e-05
-1.146983200000000142e-03
-1.280180000000000167e-05
-3.667969800000000363e-03
-5.509214700000000797e-03
-6.492509100000000075e-03
-1.278970000000000055e-05
-6.315607100000000459e-03
-4.465105700000000268e-03
-1.259029200000000119e-03
-1.287440000000000162e-05
-1.296115700000000049e-03
-2.801041100000000242e-03
-4.986942400000000421e-03
-6.287958600000000814e-03
-6.458181400000000474e-03
-5.360215300000000307e-03
-1.568087400000000046e-03
-1.283810000000000165e-05
-1.197549100000000043e-03
-2.007728800000000129e-03
-4.361263500000000376e-03
-5.921776300000000659e-03
-6.034729800000000234e-03
-3.702721000000000397e-03
-2.015509099999999998e-03
-1.157256099999999987e-03
-3.562397300000000235e-03
-6.484269000000000838e-03
-6.351895000000000631e-03
-4.588658800000000072e-03
-1.281390000000000110e-05
0.000000000000000000e+00
-2.506115699999999970e-03
-1.294530600000000104e-03
-1.285794400000000179e-03
-1.283810000000000165e-05
-2.694391700000000212e-03
-6.258253100000000547e-03
-6.475363400000000609e-03
-5.476508400000000727e-03
-1.287440000000000162e-05
-3.077695500000000254e-03
-1.630838000000000123e-03
-1.931728700000000199e-03
-1.280180000000000167e-05
-4.269654400000000467e-03
-6.524404700000000813e-03
-3.826201500000000165e-03
-2.086741800000000303e-03
-1.285020000000000107e-05
-1.163657000000000016e-03
-1.487670800000000021e-03
-3.449964100000000276e-03
-1.283810000000000165e-05
-5.387767000000000771e-03
-6.387323800000000579e-03
-1.287440000000000162e-05
-4.719919600000000576e-03
-2.580905800000000364e-03
-1.266966800000000068e-03
-2.573573200000000075e-03
-1.289860000000000048e-05
-4.836212700000000128e-03
-6.206368300000000837e-03
-6.476633900000000610e-03
-5.577119900000000047e-03
-3.153272100000000400e-03
-1.679709900000000023e-03
-1.829229600000000129e-03
-1.283810000000000165e-05
-6.505008400000000628e-03
-1.282600000000000053e-05
0.000000000000000000e+00
-6.135208200000000570e-03
-3.924017900000000003e-03
-1.162858400000000040e-03
-1.426638400000000174e-03
-3.312750100000000190e-03
-1.278970000000000055e-05
-5.304301200000000049e-03
-6.432263200000000632e-03
-6.388908900000000307e-03
-4.840471900000000577e-03
-2.641950300000000217e-03
-1.361927600000000177e-03
-2.443304600000000080e-03
-1.282600000000000053e-05
-4.744906100000000591e-03
-6.156927700000000211e-03
-5.671657200000000155e-03
-3.234293700000000302e-03
-1.280180000000000167e-05
-1.732260200000000075e-03
-1.165399400000000042e-03
-6.518294200000000066e-03
-1.285020000000000107e-05
0.000000000000000000e+00
-6.184297900000000799e-03
-1.285020000000000107e-05
-4.044654900000000698e-03
-1.185630600000000005e-03
-1.409238600000000145e-03
-1.282600000000000053e-05
-3.220160900000000430e-03
-5.251109600000000537e-03
-6.423841600000000651e-03
-4.963528899999999910e-03
-2.731683900000000248e-03
-1.287440000000000162e-05
-1.420285900000000170e-03
-1.244993200000000079e-03
-2.366784200000000317e-03
-4.683147700000000156e-03
-6.128807300000000541e-03
-6.503580600000000329e-03
-5.784320300000000449e-03
-3.356733600000000404e-03
-1.188353100000000100e-03
-1.289860000000000048e-05
-1.713892400000000199e-03
-3.961697300000000671e-03
-5.692493399999999995e-03
-6.250642200000000766e-03
-1.285020000000000107e-05
-4.192516900000000171e-03
-2.283282100000000227e-03
-1.223600400000000171e-03
-1.383501900000000178e-03
-3.103976700000000283e-03
-5.191747000000000029e-03
-6.399835200000000487e-03
-5.098927900000000367e-03
-2.801440400000000230e-03
-1.287440000000000162e-05
-1.455968800000000032e-03
-1.221603900000000015e-03
-2.221487399999999991e-03
-4.558299899999999905e-03
-6.025086100000000278e-03
-5.808084700000000489e-03
-1.806856700000000152e-03
-1.285020000000000107e-05
0.000000000000000000e+00
-1.108977100000000174e-03
-5.553670100000000602e-03
-6.458568600000000673e-03
-6.209248100000000145e-03
-1.281390000000000110e-05
0.000000000000000000e+00
-4.244655800000000229e-03
-2.315806899999999988e-03
-1.224653100000000060e-03
-1.370554900000000046e-03
-3.036567600000000203e-03
-5.184390200000000594e-03
-6.457915200000000772e-03
-6.571352700000000595e-03
-5.328888400000000511e-03
-3.007225100000000123e-03
-1.634359100000000193e-03
-1.348774900000000157e-03
-4.621643400000000068e-03
-6.122938800000000785e-03
-6.612855700000000621e-03
-3.635590200000000244e-03
-1.283810000000000165e-05
0.000000000000000000e+00
-1.996536300000000246e-03
-1.229166399999999989e-03
-1.649859200000000116e-03
-3.777438500000000320e-03
-5.593709000000000528e-03
-6.542215900000000403e-03
-6.346353200000000826e-03
-4.448335099999999910e-03
-2.431446600000000072e-03
-1.285637100000000099e-03
-1.338852900000000058e-03
-2.877017000000000376e-03
-5.051120800000000362e-03
-6.333841800000000050e-03
-6.482405600000000316e-03
-2.961620200000000380e-03
-1.562485100000000210e-03
-1.285020000000000107e-05
-1.224060200000000190e-03
-2.062759600000000151e-03
-4.422985600000000142e-03
-5.968893700000000094e-03
-6.517302000000000858e-03
-6.019979900000000696e-03
-1.992942599999999922e-03
-1.172659400000000077e-03
-1.281390000000000110e-05
-3.625922300000000275e-03
-1.281390000000000110e-05
-5.486539300000000015e-03
-6.342517500000000377e-03
-1.287440000000000162e-05
-2.475672099999999976e-03
-1.282600000000000053e-05
-1.281886100000000127e-03
-1.298160600000000013e-03
-4.952300100000000226e-03
-1.283810000000000165e-05
-6.277032300000000634e-03
-6.465126800000000132e-03
-5.421719600000000396e-03
-3.028315400000000310e-03
-1.594767900000000063e-03
-1.193035800000000115e-03
-1.959437700000000310e-03
-4.304066799999999894e-03
-5.882657000000000337e-03
-6.514301200000000187e-03
-6.051294700000000269e-03
-3.758840800000000110e-03
-2.038087700000000297e-03
-1.148773999999999976e-03
-3.485380800000000435e-03
-5.403339700000000731e-03
-1.285020000000000107e-05
-6.456644700000000771e-03
-4.638075200000000252e-03
-1.287440000000000162e-05
-2.520599400000000240e-03
-1.296829599999999982e-03
-1.246675100000000074e-03
-2.608288100000000307e-03
-6.205279300000000713e-03
-6.447376100000000790e-03
-1.280180000000000167e-05
-5.502305600000000074e-03
-3.083491400000000406e-03
-1.620020600000000215e-03
-1.163136700000000183e-03
-1.841825700000000081e-03
-4.177234600000000360e-03
-6.472640900000000731e-03
-1.278970000000000055e-05
-6.076535300000000632e-03
-3.828488400000000253e-03
-2.064852900000000140e-03
-1.120956100000000026e-03
-1.405765900000000099e-03
-5.285497800000000385e-03
-6.386222700000000231e-03
-6.317482600000000337e-03
-4.707710700000000172e-03
-1.285020000000000107e-05
-2.535784900000000001e-03
-1.272157700000000127e-03
-1.183367900000000146e-03
-2.426146799999999958e-03
-4.708908600000000569e-03
-6.092265300000000022e-03
-5.535253900000000268e-03
-1.278970000000000055e-05
-3.101435700000000281e-03
-1.608949100000000177e-03
-1.067667700000000030e-03
-1.696916100000000170e-03
-3.993580800000000319e-03
-6.403283700000000737e-03
-1.281390000000000110e-05
-6.038940600000000658e-03
-1.039982900000000149e-03
-1.283810000000000165e-05
-1.280446200000000040e-03
-1.288650000000000105e-05
-3.121509600000000380e-03
-5.133981600000000339e-03
-6.265888200000000775e-03
-4.746636400000000394e-03
-1.287440000000000162e-05
-2.532372699999999987e-03
-1.238955300000000020e-03
-2.251894700000000183e-03
-1.283810000000000165e-05
-4.561627400000000526e-03
-5.986378200000000600e-03
-6.334628300000000670e-03
-3.150440700000000250e-03
-1.623832100000000217e-03
-1.032747100000000126e-03
-1.588330700000000015e-03
-3.868454700000000142e-03
-6.385654000000000156e-03
-1.283810000000000165e-05
0.000000000000000000e+00
-6.085743400000000365e-03
-3.992709599999999873e-03
-2.119266600000000063e-03
-1.079900800000000013e-03
-3.037983300000000279e-03
-5.104130899999999998e-03
-1.286230000000000050e-05
3.073073300000000053e-03
-4.927483000000000730e-03
-2.667348200000000009e-03
-1.343112100000000073e-03
-2.212932700000000159e-03
-4.556968900000000523e-03
-6.420671400000000327e-03
-1.286230000000000050e-05
0.000000000000000000e+00
-5.749133500000000625e-03
-3.322938300000000209e-03
-1.767531700000000159e-03
-3.849760200000000316e-03
-1.283810000000000165e-05
0.000000000000000000e+00
-5.590054799999999956e-03
-6.470777500000000210e-03
-6.201782400000000438e-03
-2.258162500000000360e-03
-1.163172999999999985e-03
-1.310647800000000127e-03
-1.285020000000000107e-05
-2.990236700000000088e-03
-5.092418100000000065e-03
-6.328723500000000245e-03
-5.098468100000000565e-03
-2.796128500000000325e-03
-1.436923400000000026e-03
-1.285020000000000107e-05
-1.184069700000000072e-03
-2.167436700000000254e-03
-6.009912700000000739e-03
-6.467837200000000654e-03
-5.868221700000000526e-03
-3.468416600000000412e-03
-1.282600000000000053e-05
-1.862093200000000063e-03
-1.140836400000000026e-03
-1.584555500000000032e-03
-5.560845400000000160e-03
-6.268114600000000182e-03
-1.285020000000000107e-05
-4.331158700000000555e-03
-1.282600000000000053e-05
-2.344701700000000055e-03
-1.216013700000000185e-03
-1.303242600000000017e-03
-2.887277799999999998e-03
-5.041852200000000381e-03
-6.310827600000000828e-03
-6.426830300000000232e-03
-2.886733300000000370e-03
-1.285020000000000107e-05
-1.500097500000000103e-03
-1.192866400000000028e-03
-4.431407200000000123e-03
-6.485116000000000838e-03
-1.285020000000000107e-05
-5.953926000000000010e-03
-1.287440000000000162e-05
-3.574412600000000106e-03
-1.934027700000000077e-03
-1.141163099999999977e-03
-1.546416300000000212e-03
-3.659790200000000073e-03
-5.497538200000000666e-03
-6.485660500000000467e-03
-6.301825200000000550e-03
-4.449799200000000010e-03
-2.422359499999999968e-03
-1.248417500000000100e-03
-1.289339700000000045e-03
-4.972386100000000114e-03
-1.281390000000000110e-05
-6.450292200000000767e-03
-5.348635600000000226e-03
-1.287440000000000162e-05
-1.558504200000000121e-03
-1.186150900000000055e-03
-1.285020000000000107e-05
-4.334002200000000062e-03
-1.285020000000000107e-05
-5.906542400000000005e-03
-6.497905700000000673e-03
-6.016930700000000000e-03
-1.997492200000000086e-03
-1.278970000000000055e-05
-1.144756800000000085e-03
-1.500158000000000134e-03
-3.536333900000000318e-03
-5.436699400000000702e-03
-6.466240000000000702e-03
-6.341307500000000624e-03
-4.583008099999999994e-03
-2.490627700000000271e-03
-1.286338900000000025e-03
-1.266458600000000025e-03
-2.667396600000000034e-03
-4.900197499999999970e-03
-6.241071100000000413e-03
-6.453982700000000274e-03
-5.471365900000000476e-03
-3.055637200000000005e-03
-1.612300800000000161e-03
-4.247221000000000676e-03
-1.283810000000000165e-05
0.000000000000000000e+00
-5.852431200000000021e-03
-6.502164900000000254e-03
-6.084424500000000340e-03
-2.068252999999999932e-03
-1.153456699999999991e-03
-1.466459500000000206e-03
-1.283810000000000165e-05
-5.369447600000000487e-03
-6.456814100000000424e-03
-6.370032900000000171e-03
-4.699519000000000092e-03
-2.565768700000000194e-03
-1.282600000000000053e-05
-1.254806300000000123e-03
-2.563360800000000043e-03
-4.823701300000000219e-03
-6.203803100000000390e-03
-1.286230000000000050e-05
-6.473270100000000186e-03
-5.573877100000000119e-03
-3.151566000000000176e-03
-1.674869900000000144e-03
-1.178503700000000038e-03
-1.834856100000000195e-03
-4.149477200000000442e-03
-5.796468700000000605e-03
-6.518766100000000091e-03
-6.139164900000000646e-03
-3.928712700000000675e-03
-2.137247200000000173e-03
-1.165641400000000166e-03
-1.431236400000000146e-03
-6.435518100000000782e-03
-1.281390000000000110e-05
0.000000000000000000e+00
-4.835510900000000202e-03
-2.642543200000000304e-03
-1.368026000000000051e-03
-1.280180000000000167e-05
-1.241726200000000139e-03
-2.460305100000000338e-03
-4.750351100000000347e-03
-6.162868800000000438e-03
-6.483978600000000689e-03
-3.245365200000000123e-03
-1.283810000000000165e-05
-1.736180600000000133e-03
-1.182557200000000164e-03
-1.763841200000000218e-03
-4.060251800000000237e-03
-5.744874300000000177e-03
-6.199785900000000065e-03
-1.281390000000000110e-05
-4.053366899999999960e-03
-2.208467800000000255e-03
-1.192697000000000158e-03
-1.401591400000000128e-03
-3.216192100000000130e-03
-5.248750100000000411e-03
-6.419473500000000797e-03
-4.967001600000000607e-03
-1.281390000000000110e-05
-2.726722900000000307e-03
-1.246602500000000037e-03
-2.353740400000000135e-03
-1.287440000000000162e-05
-4.676795200000000152e-03
-6.494178900000000497e-03
-3.349292100000000275e-03
-1.180379200000000132e-03
-1.287440000000000162e-05
-1.710746400000000104e-03
-1.289860000000000048e-05
0.000000000000000000e+00
-5.682208400000000360e-03
-1.282600000000000053e-05
-6.531906700000000322e-03
-4.180259600000000610e-03
-2.281442900000000152e-03
-1.280180000000000167e-05
-1.379508900000000083e-03
-1.282600000000000053e-05
-3.100346700000000157e-03
-5.180022100000000740e-03
-6.391655600000000631e-03
-6.448622400000000345e-03
-5.085763100000000557e-03
-2.805203500000000207e-03
-1.465927100000000149e-03
-1.235809300000000142e-03
-2.265870200000000192e-03
-4.596560100000000003e-03
-6.075760900000000235e-03
-6.508275400000000134e-03
-1.871918400000000112e-03
-1.281390000000000110e-05
-1.183029099999999972e-03
-1.282600000000000053e-05
-1.655691400000000070e-03
-5.627855200000000252e-03
-6.524005400000000392e-03
-6.289567900000000121e-03
-4.312827200000000048e-03
-2.349565899999999947e-03
-1.283810000000000165e-05
-1.245779700000000049e-03
-1.352598500000000165e-03
-6.359457500000000388e-03
-1.278970000000000055e-05
-6.457673200000000648e-03
-5.210538300000000338e-03
-2.879001400000000092e-03
-1.506087000000000137e-03
-1.283810000000000165e-05
-1.226335000000000055e-03
-4.503329600000000564e-03
-6.013458000000000171e-03
-1.285020000000000107e-05
-6.505480300000000653e-03
-5.941608200000000201e-03
-1.928764200000000198e-03
-1.283810000000000165e-05
-1.590666000000000128e-03
-1.287440000000000162e-05
-5.541086100000000222e-03
-6.505686000000000108e-03
-1.285020000000000107e-05
-2.407549100000000181e-03
-1.280180000000000167e-05
0.000000000000000000e+00
-1.315608800000000068e-03
-1.277760000000000113e-05
-5.026485200000000743e-03
-6.313368600000000830e-03
-1.289860000000000048e-05
-6.465465600000000305e-03
-5.316788400000000379e-03
-2.959551100000000403e-03
-1.551994400000000036e-03
-1.208015599999999988e-03
-2.052051100000000083e-03
-4.401496000000000401e-03
-5.952413500000000753e-03
-6.512958100000000583e-03
-6.003681200000000363e-03
-3.658289800000000171e-03
-1.981604899999999964e-03
-1.539083700000000140e-03
-3.608401500000000400e-03
-1.286230000000000050e-05
-6.495110600000000324e-03
-1.281390000000000110e-05
-6.357836100000000858e-03
-4.562232400000000403e-03
-1.306485400000000161e-03
-1.304755100000000142e-03
-1.285020000000000107e-05
-4.966057800000000556e-03
-1.281390000000000110e-05
-6.288575700000000046e-03
-6.488540300000000642e-03
-5.454861500000000689e-03
-1.624836400000000082e-03
-1.285020000000000107e-05
-1.221107799999999978e-03
-4.329972900000000381e-03
-1.281390000000000110e-05
-5.913645100000000827e-03
-6.097081100000000323e-03
-1.188147399999999994e-03
-1.287440000000000162e-05
0.000000000000000000e+00
0.000000000000000000e+00
-1.521720200000000129e-03
-3.513440700000000291e-03
-6.393773100000000632e-03
-1.289860000000000048e-05
-2.574420200000000075e-03
-1.282600000000000053e-05
-1.342277200000000078e-03
-1.297386200000000050e-03
-2.652053799999999975e-03
-4.895647900000000240e-03
-1.287440000000000162e-05
-6.246661300000000243e-03
-5.529252300000000661e-03
-3.106275700000000160e-03
-1.287440000000000162e-05
-1.147636600000000043e-03
-1.278970000000000055e-05
-1.841595800000000180e-03
-5.790539700000000602e-03
-6.481945800000000514e-03
-1.285020000000000107e-05
-3.859065100000000099e-03
-1.289860000000000048e-05
-2.072826800000000108e-03
-1.122057200000000157e-03
-1.407714000000000014e-03
-3.342201500000000110e-03
-6.454769200000000026e-03
-1.287440000000000162e-05
-6.432529400000000334e-03
-4.844271300000000356e-03
-2.701591200000000217e-03
-4.942632200000000690e-03
-1.283810000000000165e-05
0.000000000000000000e+00
-6.629553700000000507e-03
-5.786619300000000327e-03
-3.349328400000000077e-03
-1.285020000000000107e-05
0.000000000000000000e+00
-1.307719600000000143e-03
-1.281390000000000110e-05
-1.909549400000000105e-03
-4.207714500000000156e-03
-5.858396500000000694e-03
-6.595722100000000511e-03
-6.242293200000000389e-03
-4.062296700000000635e-03
-2.233042900000000060e-03
-1.229069600000000156e-03
-1.463168300000000036e-03
-5.315989800000000404e-03
-6.462658400000000601e-03
-6.447170400000000468e-03
-1.281390000000000110e-05
-4.950243100000000472e-03
-2.726214700000000046e-03
-1.425452600000000000e-03
-1.275025400000000080e-03
-2.424561700000000229e-03
-4.735407600000000709e-03
-6.165421900000000663e-03
-6.517011600000000709e-03
-5.756732300000000184e-03
-3.328867300000000213e-03
-1.795724700000000083e-03
-1.193205199999999985e-03
-4.011331500000000529e-03
-1.287440000000000162e-05
-6.542470000000000750e-03
-1.285020000000000107e-05
-6.228959000000000058e-03
-4.142362400000000264e-03
-1.209140900000000131e-03
-1.394331400000000092e-03
-3.153623000000000363e-03
-1.283810000000000165e-05
-5.217362700000000367e-03
-6.402920700000000118e-03
-6.445633700000000764e-03
-5.034313900000000203e-03
-2.768964000000000061e-03
-1.442816100000000011e-03
-1.230473200000000008e-03
-2.300790800000000313e-03
-4.624849900000000194e-03
-6.093257500000000097e-03
-6.495243700000000175e-03
-5.823863100000000771e-03
-1.829786200000000198e-03
-1.282600000000000053e-05
-1.171933400000000139e-03
-1.661112200000000030e-03
-3.881922000000000324e-03
-6.505807000000000603e-03
-6.250751100000000171e-03
-1.283810000000000165e-05
-4.230656100000000641e-03
-2.298044099999999989e-03
-1.208572200000000057e-03
-3.004042800000000010e-03
-1.288650000000000105e-05
-5.119727800000000405e-03
-6.347829400000000281e-03
-6.424011000000000304e-03
-5.135530400000000266e-03
-2.817376100000000376e-03
-1.457021500000000138e-03
-2.161858600000000213e-03
-1.282600000000000053e-05
-4.510420200000000296e-03
-6.008642200000000738e-03
-3.468295600000000350e-03
-1.122396000000000114e-03
-1.571499600000000061e-03
-1.280180000000000167e-05
0.000000000000000000e+00
0.000000000000000000e+00
-3.732111900000000069e-03
-6.464872700000000652e-03
-1.283810000000000165e-05
-6.241748700000000760e-03
-4.304865399999999870e-03
-2.321457600000000066e-03
-1.181456100000000033e-03
-1.263796600000000178e-03
-2.847783400000000135e-03
-4.990052100000000497e-03
-6.257394000000000324e-03
-6.383754300000000700e-03
-5.179296100000000368e-03
-1.441255200000000078e-03
-1.287440000000000162e-05
-1.119177399999999982e-03
-1.997661600000000173e-03
-5.878143700000000409e-03
-6.398770400000000809e-03
-5.871174100000000305e-03
-3.502538600000000123e-03
-1.287440000000000162e-05
-1.839817100000000136e-03
-1.044544600000000103e-03
-3.529872500000000041e-03
-1.277760000000000113e-05
-5.382818100000000619e-03
-6.361381400000000290e-03
-6.198043500000000039e-03
-4.351571400000000395e-03
-2.303126099999999992e-03
-1.131967100000000033e-03
-1.156142900000000067e-03
-2.640534600000000141e-03
-4.834905900000000326e-03
-6.141512300000000549e-03
-6.313429100000000210e-03
-5.233431499999999931e-03
-2.843754100000000021e-03
-1.059125099999999988e-03
-1.843761700000000206e-03
-4.202281600000000623e-03
-1.285020000000000107e-05
-6.365156600000000491e-03
-5.902972900000000127e-03
-1.287440000000000162e-05
-3.581370100000000421e-03
-1.889354500000000161e-03
-1.031573400000000175e-03
-1.389757600000000133e-03
-3.422630200000000358e-03
-5.318022600000000578e-03
-6.366523900000000541e-03
-6.241833400000000587e-03
-4.497412699999999916e-03
-1.202183400000000034e-03
-1.282600000000000053e-05
-2.584039700000000019e-03
-1.278970000000000055e-05
-4.812484600000000758e-03
-6.163110800000000562e-03
-6.391909700000000111e-03
-5.404525500000000038e-03
-3.009693500000000087e-03
-1.559278600000000084e-03
-1.119153199999999970e-03
-1.851529900000000069e-03
-4.178021100000000113e-03
-6.459367200000000649e-03
-1.286230000000000050e-05
-6.037524900000000583e-03
-3.786344100000000115e-03
-2.032388600000000194e-03
-1.114168000000000016e-03
-1.424242600000000030e-03
-3.380425400000000406e-03
-5.329336100000000090e-03
-6.410604200000000370e-03
-6.344054200000000081e-03
-4.687225400000000729e-03
-2.543093300000000279e-03
-1.302008400000000034e-03
-1.220986800000000132e-03
-2.521954600000000067e-03
-4.785247500000000022e-03
-6.167684600000000739e-03
-6.447436600000000170e-03
-5.560555000000000012e-03
-3.138485900000000193e-03
-1.658692200000000090e-03
-1.157425500000000074e-03
-1.800843000000000105e-03
-4.115681900000000247e-03
-5.770369000000000019e-03
-6.490149600000000817e-03
-6.125721800000000043e-03
-3.919565100000000323e-03
-1.151617500000000132e-03
-1.282600000000000053e-05
-1.412372500000000017e-03
-3.280648800000000431e-03
-6.412261900000000570e-03
-6.382992000000000526e-03
-1.285020000000000107e-05
-4.831868800000000720e-03
-2.636360100000000387e-03
-1.351412699999999991e-03
-1.227920100000000000e-03
-2.429280700000000046e-03
-4.725062099999999959e-03
-6.140411200000000201e-03
-6.467934000000000704e-03
-3.237705900000000317e-03
-1.285020000000000107e-05
-1.729416700000000135e-03
-1.156058200000000024e-03
-1.747675600000000171e-03
-4.032675900000000195e-03
-5.715906900000000505e-03
-6.513030700000000187e-03
-6.181248700000000103e-03
-4.050922700000000008e-03
-1.170941200000000064e-03
-1.380537400000000177e-03
-3.184720000000000259e-03
-1.286230000000000050e-05
-6.393797300000000211e-03
-6.412443400000000446e-03
-1.291070000000000160e-05
-4.950606100000000225e-03
-2.710266900000000111e-03
-1.399486000000000133e-03
-1.214610100000000116e-03
-2.328995900000000244e-03
-4.643689600000000528e-03
-6.475024600000000435e-03
-1.275340000000000058e-05
-5.765601600000000611e-03
-3.340398600000000270e-03
-1.789517400000000154e-03
-1.159010600000000019e-03
-1.680859400000000179e-03
-5.660464700000000272e-03
-1.283810000000000165e-05
-6.228341900000000826e-03
-1.281390000000000110e-05
-4.173725599999999862e-03
-2.263680100000000153e-03
-1.194282100000000103e-03
-1.350311600000000077e-03
-3.065982700000000321e-03
-5.155725300000000427e-03
-6.366826400000000045e-03
-6.426019600000000033e-03
-2.790090600000000049e-03
-1.281390000000000110e-05
-1.445405500000000037e-03
-1.215420800000000098e-03
-4.569189900000000283e-03
-1.283810000000000165e-05
-6.050774400000000219e-03
-6.485878300000000145e-03
-5.857779400000000594e-03
-3.436654100000000392e-03
-1.859346500000000173e-03
-1.629833700000000041e-03
-3.818711600000000445e-03
-5.592970900000000800e-03
-1.285020000000000107e-05
-6.509086100000000333e-03
-4.293007399999999862e-03
-1.283810000000000165e-05
-2.339571300000000027e-03
-1.328410600000000125e-03
-1.283810000000000165e-05
-2.960010900000000205e-03
-5.087505500000000583e-03
-6.340726700000000327e-03
-6.451066600000000296e-03
-5.205202199999999987e-03
-2.880284000000000316e-03
-1.501610000000000011e-03
-1.210266200000000058e-03
-2.138553999999999976e-03
-4.485336900000000231e-03
-6.006270600000000390e-03
-5.942068000000000003e-03
-1.281390000000000110e-05
-3.560388700000000073e-03
-1.927191200000000042e-03
-1.581651500000000061e-03
-1.288650000000000105e-05
-5.544437800000000423e-03
-6.500216800000000773e-03
-4.433863500000000298e-03
-1.278970000000000055e-05
-2.411421099999999998e-03
-1.259501100000000144e-03
-1.278970000000000055e-05
-1.308578700000000150e-03
-2.845363400000000195e-03
-5.023508600000000518e-03
-6.313138700000000061e-03
-6.464715400000000355e-03
-5.332929800000000414e-03
-2.958583100000000340e-03
-1.554595900000000069e-03
-1.217018000000000049e-03
-2.038208699999999925e-03
-4.400818400000000054e-03
-5.956321800000000805e-03
-6.515293400000000262e-03
-6.020790600000000027e-03
-3.668344900000000339e-03
-2.001751400000000101e-03
-1.166379500000000111e-03
-3.609950300000000327e-03
-6.500362000000000848e-03
-1.285020000000000107e-05
-4.551681200000000198e-03
-1.286230000000000050e-05
-2.492914600000000359e-03
-1.280180000000000167e-05
-1.297035300000000087e-03
-1.299636800000000120e-03
-2.742973200000000181e-03
-4.952324300000000672e-03
-6.281218900000000611e-03
-6.485164400000000863e-03
-5.445096800000000237e-03
-3.056339000000000364e-03
-1.619234100000000029e-03
-1.206515200000000086e-03
-5.903057600000000821e-03
-1.281390000000000110e-05
0.000000000000000000e+00
-6.531785700000000694e-03
-6.088841000000000218e-03
-3.794947200000000406e-03
-2.066692100000000216e-03
-1.181770699999999978e-03
-1.506002300000000094e-03
-3.496791100000000430e-03
-6.484535200000000540e-03
-4.687515800000000010e-03
-1.281390000000000110e-05
-2.565103200000000069e-03
-1.288650000000000105e-05
-1.340752600000000164e-03
-2.633105200000000236e-03
-1.285020000000000107e-05
-4.883547900000000108e-03
-6.245475500000000069e-03
-6.494396700000000175e-03
-3.142817700000000245e-03
-1.676491300000000108e-03
-1.212081200000000121e-03
-1.283810000000000165e-05
-1.880969200000000199e-03
-5.844663000000000809e-03
-1.282600000000000053e-05
-6.150841400000000778e-03
-1.281390000000000110e-05
-3.911095100000000317e-03
-2.141470099999999953e-03
-1.191148200000000015e-03
-1.470694499999999991e-03
-3.389585100000000115e-03
-5.357686400000000529e-03
-6.416521100000000151e-03
-1.285020000000000107e-05
-2.643329700000000056e-03
-1.283810000000000165e-05
-1.375370700000000130e-03
-1.275061700000000098e-03
-2.520248500000000277e-03
-4.803482200000000479e-03
-6.507089600000000827e-03
-5.667010800000000376e-03
-1.285020000000000107e-05
-3.241711000000000419e-03
-1.739629100000000166e-03
-1.201118600000000139e-03
-4.111035500000000467e-03
-1.286230000000000050e-05
-5.784598600000000375e-03
-6.199314000000000040e-03
-1.278970000000000055e-05
-4.040601400000000572e-03
-2.207185200000000031e-03
-1.206732999999999981e-03
-3.266419200000000075e-03
-1.285020000000000107e-05
-5.285667200000000038e-03
-6.439051300000000859e-03
-6.439970900000000463e-03
-4.935396400000000017e-03
-1.417236700000000125e-03
-1.277760000000000113e-05
-1.256367200000000055e-03
-2.401801600000000054e-03
-4.711243900000000248e-03
-6.141742200000000450e-03
-5.757990699999999962e-03
-1.278970000000000055e-05
-3.325430900000000186e-03
-1.792590800000000211e-03
-1.190337500000000033e-03
-1.729803900000000116e-03
-5.708985700000000427e-03
-1.277760000000000113e-05
-6.527998400000000270e-03
-6.235045300000000359e-03
-4.152913600000000469e-03
-2.268459600000000218e-03
-1.215602299999999974e-03
-3.139478100000000268e-03
-1.283810000000000165e-05
-5.208227200000000237e-03
-6.406526500000000665e-03
-6.442524000000000688e-03
-5.062216500000000195e-03
-1.455375900000000161e-03
-1.246759800000000118e-03
-1.281390000000000110e-05
-2.284891399999999968e-03
-4.620372900000000067e-03
-6.089494400000000120e-03
-6.507912400000000382e-03
-3.433302400000000192e-03
-1.281390000000000110e-05
-1.869498400000000173e-03
-1.187941700000000106e-03
-3.898983000000000396e-03
-1.283810000000000165e-05
-5.657076700000000270e-03
-6.548737800000000060e-03
-6.288854000000000839e-03
-4.288905500000000579e-03
-2.351380900000000010e-03
-1.250196200000000145e-03
-1.382872700000000073e-03
-3.041407600000000083e-03
-6.387940900000000678e-03
-6.485975100000000194e-03
-1.285020000000000107e-05
-5.196732199999999982e-03
-2.885874200000000146e-03
-1.249470199999999989e-03
-1.275340000000000058e-05
-2.213646600000000308e-03
-4.552044199999999950e-03
-6.057671400000000719e-03
-6.533346600000000844e-03
-3.560086200000000135e-03
-1.938178000000000036e-03
-1.287440000000000162e-05
-1.202897300000000183e-03
-1.636367700000000138e-03
-3.788582600000000179e-03
-5.600400300000000706e-03
-6.536686200000000821e-03
-6.332414000000000619e-03
-4.413741200000000607e-03
-2.413357100000000123e-03
-1.268479300000000193e-03
-1.332016400000000022e-03
-2.884385900000000034e-03
-5.036467700000000006e-03
-6.299647200000000301e-03
-6.423333400000000824e-03
-2.889286400000000161e-03
-1.177112199999999975e-03
-1.278970000000000055e-05
0.000000000000000000e+00
-2.040568200000000051e-03
-4.400540100000000128e-03
-6.464739600000000801e-03
-5.946835400000000278e-03
-1.287440000000000162e-05
-3.592840900000000229e-03
-1.962958800000000163e-03
-1.173591100000000121e-03
-1.599317500000000010e-03
-3.719927200000000111e-03
-5.591567300000000081e-03
-6.616437300000000722e-03
-4.652849300000000236e-03
-2.612160100000000124e-03
-1.424581400000000204e-03
-1.280180000000000167e-05
-2.920383400000000056e-03
-1.285020000000000107e-05
-6.415407900000000448e-03
-6.590845800000000830e-03
-1.283810000000000165e-05
-5.504967600000000572e-03
-3.113281600000000066e-03
-1.675801600000000188e-03
-1.279647600000000064e-03
-2.063848600000000276e-03
-4.397466700000000721e-03
-5.973407000000000022e-03
-6.562689100000000490e-03
-6.094782100000000445e-03
-3.782205900000000162e-03
-2.069172599999999970e-03
-1.204131500000000165e-03
-3.561030000000000185e-03
-5.473144600000000304e-03
-1.280180000000000167e-05
-6.401287200000000364e-03
-1.289860000000000048e-05
-2.554552000000000298e-03
-1.283810000000000165e-05
-1.340099200000000046e-03
-1.303436200000000116e-03
-2.686877600000000046e-03
-6.273850000000000086e-03
-1.286230000000000050e-05
-6.497107100000000697e-03
-5.532749200000000069e-03
-1.660725000000000048e-03
-1.280180000000000167e-05
-1.219510600000000026e-03
-4.262842100000000661e-03
-6.537472700000000574e-03
-1.287440000000000162e-05
-6.127052800000000292e-03
-3.861666600000000348e-03
-1.286230000000000050e-05
-3.435056900000000440e-03
-5.380991000000000767e-03
-1.278970000000000055e-05
0.000000000000000000e+00
-6.474637400000000237e-03
-6.397560400000000189e-03
-1.280180000000000167e-05
-4.754174700000000572e-03
-1.268769700000000125e-03
-1.283810000000000165e-05
-2.551853699999999999e-03
-4.819599400000000068e-03
-6.204686400000000192e-03
-6.485987200000000417e-03
-5.608301600000000636e-03
-3.188858200000000212e-03
-1.282600000000000053e-05
-1.180125100000000002e-03
-1.287440000000000162e-05
-1.828915000000000185e-03
-4.127116400000000254e-03
-5.787260600000000005e-03
-3.970385100000000354e-03
-2.153872600000000023e-03
-1.281390000000000110e-05
-1.169779600000000119e-03
-3.271924700000000078e-03
-5.282351800000000507e-03
-1.283810000000000165e-05
0.000000000000000000e+00
-6.412455500000000669e-03
-4.856976300000000364e-03
-1.283810000000000165e-05
-1.361092700000000183e-03
-1.213847800000000159e-03
-2.404221599999999993e-03
-1.281390000000000110e-05
-4.705363300000000269e-03
-6.121801400000000636e-03
-6.451465900000000718e-03
-5.670108400000000229e-03
-3.233930700000000116e-03
-1.711109400000000074e-03
-1.134483900000000023e-03
-1.696492600000000170e-03
-3.978988200000000211e-03
-6.147029900000000775e-03
-1.281390000000000110e-05
-4.024363200000000487e-03
-1.285020000000000107e-05
-2.163225900000000264e-03
-3.095422000000000017e-03
-1.283810000000000165e-05
0.000000000000000000e+00
-5.141060100000000715e-03
-6.321947500000000240e-03
-6.338500300000000053e-03
-4.907530100000000693e-03
-1.321368399999999985e-03
-1.283810000000000165e-05
-1.130466700000000132e-03
-2.210561100000000244e-03
-4.533277100000000087e-03
-5.987491400000000304e-03
-6.379289400000000797e-03
-3.251040100000000214e-03
-1.285020000000000107e-05
-1.691168600000000043e-03
-1.029431700000000161e-03
-3.779084100000000297e-03
-5.519874800000000407e-03
-1.277760000000000113e-05
-6.105405900000000254e-03
-1.288650000000000105e-05
-2.146685200000000241e-03
-1.062428400000000163e-03
-1.285020000000000107e-05
-1.208463300000000001e-03
-5.002672400000000678e-03
-1.281390000000000110e-05
-6.224445700000000130e-03
-4.967316200000000334e-03
-1.281390000000000110e-05
-2.673845900000000088e-03
-1.324357099999999999e-03
-2.071217499999999934e-03
-1.277760000000000113e-05
-4.417044499999999915e-03
-5.917008900000000383e-03
-3.353091500000000055e-03
-1.282600000000000053e-05
0.000000000000000000e+00
-1.760138600000000055e-03
-1.051272200000000082e-03
-3.690233800000000067e-03
-1.281390000000000110e-05
-5.488148600000000189e-03
-6.193215600000000383e-03
-4.244171799999999981e-03
-1.293490000000000045e-05
-2.273360100000000345e-03
-1.150818900000000157e-03
-1.248732100000000044e-03
-2.851897400000000075e-03
-4.999925700000000355e-03
-6.268659100000000678e-03
-5.180276200000000220e-03
-2.837583100000000327e-03
-1.283810000000000165e-05
-1.453548800000000092e-03
-1.154594100000000140e-03
-2.051639700000000305e-03
-5.940325599999999977e-03
-1.282600000000000053e-05
-6.458955800000000004e-03
-5.915012400000000010e-03
-1.900135600000000050e-03
-1.283810000000000165e-05
-1.530855700000000041e-03
-5.485934300000000138e-03
-1.281390000000000110e-05
0.000000000000000000e+00
-6.469736900000000110e-03
-4.422913000000000538e-03
-1.286230000000000050e-05
-2.398788700000000027e-03
-1.230182800000000076e-03
-1.274251000000000116e-03
-2.789279900000000284e-03
-4.972180400000000659e-03
-6.273825800000000508e-03
-5.334853700000000316e-03
-2.961039400000000082e-03
-1.289860000000000048e-05
-1.182036900000000114e-03
-1.998145599999999987e-03
-1.281390000000000110e-05
-5.919791900000000509e-03
-1.283810000000000165e-05
-6.497324900000000375e-03
-6.020766400000000448e-03
-3.688370400000000413e-03
-1.992337600000000045e-03
-1.151629600000000139e-03
-1.506159600000000175e-03
-3.559977300000000296e-03
-6.477722900000000734e-03
-1.292280000000000102e-05
-6.347079200000000331e-03
-4.571307400000000284e-03
-2.488824799999999997e-03
-1.283374400000000023e-03
-1.275461000000000086e-03
-2.681638300000000179e-03
-4.912527400000000002e-03
-6.254865100000000545e-03
-6.466796600000000554e-03
-5.471450600000000303e-03
-3.058202400000000019e-03
-1.192467100000000040e-03
-1.915296900000000233e-03
-1.278970000000000055e-05
-4.266193799999999994e-03
-6.516805900000000387e-03
-1.283810000000000165e-05
-6.087921400000000614e-03
-3.799750900000000049e-03
-2.069608200000000193e-03
-1.155671000000000042e-03
-1.474215600000000062e-03
-3.443260700000000309e-03
-5.380010900000000047e-03
-6.375816700000000101e-03
-1.281390000000000110e-05
-4.698768800000000141e-03
-2.566264800000000231e-03
-1.319250899999999983e-03
-1.255653300000000123e-03
-2.578316400000000338e-03
-4.835281000000000301e-03
-6.212273100000000395e-03
-6.481098800000000514e-03
-5.569109700000000711e-03
-3.149980900000000014e-03
-4.154631800000000048e-03
-1.285020000000000107e-05
0.000000000000000000e+00
-5.801550700000000609e-03
-6.517786000000000239e-03
-1.285020000000000107e-05
-6.140084500000000250e-03
-3.928047200000000551e-03
-2.128535200000000044e-03
-3.321643600000000196e-03
-1.281390000000000110e-05
-5.315953500000000602e-03
-6.436546600000000659e-03
-6.400803200000000116e-03
-4.835958600000000648e-03
-1.278970000000000055e-05
-2.636747300000000151e-03
-1.361975999999999985e-03
-1.244448700000000017e-03
-2.458187600000000337e-03
-4.756776199999999954e-03
-6.170927400000000666e-03
-6.483688200000000540e-03
-5.684906700000000659e-03
-3.239194200000000429e-03
-1.730650900000000117e-03
-1.177269500000000056e-03
-1.763780700000000187e-03
-4.066785800000000117e-03
-5.745164700000000325e-03
-2.208322600000000181e-03
-1.283810000000000165e-05
-1.182605599999999972e-03
-1.404096100000000111e-03
-1.282600000000000053e-05
-3.216022700000000043e-03
-6.422292800000000725e-03
-1.286230000000000050e-05
-6.428004000000000183e-03
-1.283810000000000165e-05
-4.964472699999999961e-03
-2.724024600000000008e-03
-1.405838500000000137e-03
-1.235712500000000092e-03
-2.358471500000000175e-03
-6.124560200000000315e-03
-1.289860000000000048e-05
-6.502890900000000626e-03
-5.778463900000000049e-03
-3.349328400000000077e-03
-1.799608800000000123e-03
-1.707116400000000195e-03
-1.285020000000000107e-05
-3.957740600000000594e-03
-5.692336100000000565e-03
-6.529801300000000544e-03
-6.246879100000000788e-03
-4.181082400000000164e-03
-2.268967800000000045e-03
-1.204300900000000035e-03
-3.095313100000000178e-03
-5.183180199999999974e-03
-6.391921800000000334e-03
-1.282600000000000053e-05
-6.451102900000000098e-03
-5.081975800000000133e-03
-2.793151900000000101e-03
-1.450257600000000140e-03
-1.224568400000000017e-03
-2.245336500000000290e-03
-4.597540200000000722e-03
-6.076269100000000062e-03
-5.875155000000000828e-03
-1.287440000000000162e-05
-3.445704900000000261e-03
-1.637541400000000090e-03
-1.276550000000000170e-05
0.000000000000000000e+00
-5.623535500000000423e-03
-1.281390000000000110e-05
-6.525130700000000318e-03
-6.285877400000000614e-03
-4.299396200000000536e-03
-2.339946400000000003e-03
-1.220599600000000151e-03
-1.340583200000000077e-03
-5.109055600000000572e-03
-6.361042600000000116e-03
-1.281390000000000110e-05
-6.455882400000000597e-03
-5.210272100000000635e-03
-1.496491700000000206e-03
-1.285020000000000107e-05
-1.214101900000000072e-03
-2.146685200000000241e-03
-6.020318700000000002e-03
-6.519056500000000240e-03
-1.283810000000000165e-05
-5.947029000000000377e-03
-3.554084600000000094e-03
-3.729244200000000117e-03
-1.278970000000000055e-05
0.000000000000000000e+00
0.000000000000000000e+00
-6.523182600000000837e-03
-6.324137600000000713e-03
-1.289860000000000048e-05
-4.428587900000000195e-03
-2.408952700000000034e-03
-1.252362100000000171e-03
-1.306691100000000050e-03
-2.860815100000000093e-03
-5.037193700000000378e-03
-6.328191100000000839e-03
-6.479053900000000116e-03
-2.957276300000000104e-03
-1.280180000000000167e-05
-2.047162700000000179e-03
-1.286230000000000050e-05
-4.411914099999999887e-03
-1.285020000000000107e-05
-5.967986200000000713e-03
-6.523569800000000168e-03
-6.025037700000000253e-03
-3.662052900000000149e-03
-1.985864099999999979e-03
-1.162991500000000109e-03
-3.614185300000000330e-03
-1.281390000000000110e-05
-5.496049900000000120e-03
-6.506799200000000678e-03
-4.554367400000000274e-03
-1.280180000000000167e-05
-1.293840900000000184e-03
-2.732373600000000385e-03
-1.286230000000000050e-05
0.000000000000000000e+00
-4.957515200000000080e-03
-6.482853300000000762e-03
-5.452320500000000687e-03
-1.195467900000000061e-03
-1.278970000000000055e-05
0.000000000000000000e+00
0.000000000000000000e+00
-1.954755000000000294e-03
-4.314702699999999926e-03
-5.905804300000000277e-03
-6.537859900000000772e-03
-6.087957700000000416e-03
-3.777825700000000085e-03
-2.054144400000000072e-03
-1.152343500000000071e-03
-1.490248100000000041e-03
-3.494104900000000354e-03
-6.489956000000000717e-03
-6.384867500000000404e-03
-1.282600000000000053e-05
-4.667139399999999973e-03
-1.306570099999999988e-03
-1.253390600000000047e-03
-1.283810000000000165e-05
-2.612317399999999987e-03
-6.238808400000000337e-03
-1.291070000000000160e-05
-5.545381600000000473e-03
-1.281390000000000110e-05
-3.119839800000000392e-03
-1.643530900000000124e-03
-1.175611800000000073e-03
-4.197090700000000348e-03
-1.278970000000000055e-05
-6.525239600000000591e-03
-3.894917400000000047e-03
-2.111292700000000095e-03
-1.438266500000000064e-03
-3.364368700000000198e-03
-6.460698200000000030e-03
-6.406526500000000665e-03
-4.800384600000000626e-03
-1.281390000000000110e-05
0.000000000000000000e+00
0.000000000000000000e+00
0.000000000000000000e+00
-2.620738999999999968e-03
-1.344140600000000166e-03
-2.502292100000000179e-03
-1.280180000000000167e-05
-5.687193600000000314e-03
-1.287440000000000162e-05
-3.233374100000000265e-03
-1.187143100000000130e-03
-1.281390000000000110e-05
0.000000000000000000e+00
0.000000000000000000e+00
-1.799197400000000129e-03
-4.122941900000000499e-03
-5.795670100000000630e-03
-6.564383100000000491e-03
-4.036910900000000198e-03
-2.204027100000000364e-03
-1.281390000000000110e-05
-1.423903800000000074e-03
-3.279487200000000269e-03
-5.298239100000000194e-03
-1.289860000000000048e-05
-6.466131100000000430e-03
-6.457044000000000325e-03
-2.717018700000000102e-03
-1.281390000000000110e-05
-1.401809200000000023e-03
-4.721105400000000750e-03
-1.286230000000000050e-05
0.000000000000000000e+00
-6.534205700000000200e-03
-1.725750400000000207e-03
-1.283810000000000165e-05
-3.992624900000000046e-03
-5.719089200000000185e-03
-6.532886800000000174e-03
-1.283810000000000165e-05
0.000000000000000000e+00
0.000000000000000000e+00
0.000000000000000000e+00
-6.228354000000000182e-03
-4.110636200000000046e-03
-2.199344400000000348e-03
-1.306243400000000037e-03
-3.081325500000000380e-03
-1.286230000000000050e-05
-5.164110600000000606e-03
-6.418977400000000326e-03
-2.719656500000000154e-03
-1.285020000000000107e-05
-1.175224600000000091e-03
-1.281390000000000110e-05
-2.243521500000000227e-03
-1.277760000000000113e-05
-4.622381500000000663e-03
-6.132243700000000568e-03
-6.573675900000000051e-03
-5.945867400000000649e-03
-3.514578100000000441e-03
-1.787363600000000134e-03
-4.023177400000000313e-03
-1.287440000000000162e-05
0.000000000000000000e+00
-5.788349600000000129e-03
-6.683725400000000740e-03
-6.424107800000000354e-03
-4.395954200000000596e-03
-2.434907200000000112e-03
-1.314652900000000011e-03
-1.438230200000000045e-03
-3.101399400000000046e-03
-5.220520800000000468e-03
-6.548036000000000134e-03
-5.254691200000000638e-03
-2.909106200000000347e-03
-1.523559400000000204e-03
-2.213295700000000345e-03
-4.572009200000000211e-03
-6.093584200000000048e-03
-1.283810000000000165e-05
0.000000000000000000e+00
-6.581141600000000626e-03
-5.985591699999999980e-03
-3.567225200000000325e-03
-1.935177200000000233e-03
-1.623856300000000013e-03
-3.792236800000000317e-03
-6.571159100000000496e-03
-6.368423599999999997e-03
-4.427728799999999972e-03
-2.408831699999999972e-03
-1.278970000000000055e-05
0.000000000000000000e+00
-1.254310200000000085e-03
-1.316516300000000099e-03
-2.908017200000000222e-03
-5.080717400000000356e-03
-6.374921300000000075e-03
-6.518560400000000636e-03
-2.951698200000000064e-03
-1.283810000000000165e-05
-1.537559100000000008e-03
-1.202280200000000084e-03
-4.450416300000000110e-03
-6.010118400000000194e-03
-6.555380700000000213e-03
-1.281390000000000110e-05
-6.040477300000000362e-03
-3.648416200000000314e-03
-1.967205899999999955e-03
-1.148060100000000043e-03
-1.536409600000000070e-03
-3.649154300000000042e-03
-5.527630900000000264e-03
-6.538561700000000698e-03
-6.379809700000000847e-03
-2.455114200000000062e-03
-1.272762700000000004e-03
-1.281390000000000110e-05
0.000000000000000000e+00
-2.757033400000000016e-03
-6.319442800000000041e-03
-1.283810000000000165e-05
-6.502455300000000403e-03
-5.433480800000000353e-03
-1.164504000000000017e-03
-1.946164000000000227e-03
-5.924232599999999967e-03
-6.079318300000000758e-03
-3.737254400000000320e-03
-1.281390000000000110e-05
-2.003384900000000288e-03
-1.280180000000000167e-05
-1.459018000000000077e-03
-1.280180000000000167e-05
0.000000000000000000e+00
-3.494903500000000329e-03
-1.280180000000000167e-05
-5.427926900000000325e-03
-6.499381900000000128e-03
-6.380499400000000550e-03
-4.624813600000000392e-03
-1.239995900000000120e-03
-4.861320200000000639e-03
-6.234585500000000557e-03
-5.501010900000000495e-03
-1.281390000000000110e-05
0.000000000000000000e+00
-3.049829200000000063e-03
-1.283810000000000165e-05
-1.558322700000000028e-03
-1.095062099999999979e-03
-1.799076400000000067e-03
-1.281390000000000110e-05
-4.163380099999999980e-03
-5.811884100000000268e-03
-1.042197199999999983e-03
-1.281390000000000110e-05
-3.293983000000000327e-03
-6.396471400000000064e-03
-6.333902300000000297e-03
-4.676819400000000598e-03
-1.281390000000000110e-05
0.000000000000000000e+00
0.000000000000000000e+00
0.000000000000000000e+00
-2.470384400000000084e-03
-1.184456900000000054e-03
-1.088830600000000037e-03
-4.694485400000000114e-03
-6.396060000000000287e-03
-1.278970000000000055e-05
-5.535508000000000615e-03
-3.050918200000000188e-03
-1.283810000000000165e-05
-1.526826400000000144e-03
-1.281390000000000110e-05
-9.955154000000001214e-04
-1.624074100000000125e-03
-3.982642399999999916e-03
-5.666236399999999979e-03
-6.067738600000000676e-03
-3.846940900000000389e-03
-1.998375500000000322e-03
-1.285020000000000107e-05
-9.776921000000000916e-04
-1.233123100000000066e-03
-3.118496700000000354e-03
-5.172508000000000140e-03
-6.345542500000000627e-03
-4.789615600000000743e-03
-1.282600000000000053e-05
-2.531126399999999999e-03
-1.063335899999999978e-03
-2.260025900000000015e-03
-1.283810000000000165e-05
-4.617287400000000437e-03
-6.437284700000000387e-03
-1.281390000000000110e-05
-5.664094700000000399e-03
-3.187224700000000025e-03
-1.021252100000000088e-03
-1.598301100000000139e-03
-3.921779400000000373e-03
-5.674633800000000380e-03
-6.501354200000000055e-03
-4.052882900000000579e-03
-1.282600000000000053e-05
0.000000000000000000e+00
6.158900000000000443e-06
-1.261884800000000065e-03
-3.079813000000000255e-03
-5.193065900000000054e-03
-6.403368400000000564e-03
-6.442524000000000688e-03
-5.001595499999999909e-03
-2.682219100000000044e-03
-1.325083100000000154e-03
-2.211916300000000071e-03
-4.615811200000000114e-03
-6.112375500000000357e-03
-1.287440000000000162e-05
-1.742424200000000081e-03
-1.283810000000000165e-05
0.000000000000000000e+00
-1.069143900000000137e-03
-1.282600000000000053e-05
-1.582946200000000074e-03
-3.870753700000000453e-03
-5.662691100000000546e-03
-6.291116700000000048e-03
-1.285020000000000107e-05
-4.212203600000000506e-03
-2.241960600000000078e-03
-1.120048599999999995e-03
-1.269338399999999983e-03
-5.148320100000000100e-03
-6.408970700000000617e-03
-6.487390800000000270e-03
-1.281390000000000110e-05
-1.390241600000000164e-03
-1.283810000000000165e-05
-1.126631000000000117e-03
-1.285020000000000107e-05
-2.131584400000000306e-03
-4.535588200000000188e-03
-6.072094600000000307e-03
-6.557728100000000115e-03
-3.471356900000000401e-03
-1.819585900000000173e-03
-1.532888499999999999e-03
-3.759312700000000135e-03
-7.929856000000000535e-04
-6.567262900000000667e-03
-6.346885600000000231e-03
-4.360428600000000599e-03
-1.152972700000000177e-03
-1.282600000000000053e-05
0.000000000000000000e+00
-1.231622700000000164e-03
-6.520327000000000241e-03
-1.282600000000000053e-05
0.000000000000000000e+00
-5.291753500000000339e-03
-1.282600000000000053e-05
-2.870737100000000409e-03
-1.443578400000000185e-03
-1.117798000000000142e-03
-2.019235900000000174e-03
-4.453017800000000359e-03
-6.026816400000000080e-03
-6.568896400000000420e-03
-6.024783600000000773e-03
-3.575816200000000392e-03
-1.882542200000000138e-03
-1.473489600000000123e-03
-1.287440000000000162e-05
-5.546724700000000077e-03
-1.285020000000000107e-05
-6.564346800000000690e-03
-6.385835500000000033e-03
-4.483558200000000403e-03
-2.383288600000000104e-03
-1.165048500000000079e-03
-1.205014800000000184e-03
-2.740166000000000043e-03
-5.007609200000000607e-03
-6.535113200000000448e-03
-5.414374900000000317e-03
-1.287440000000000162e-05
-2.952992900000000077e-03
-1.487973300000000176e-03
-1.099176100000000137e-03
-1.921504200000000162e-03
-4.354898900000000149e-03
-5.971410500000000517e-03
-6.591946900000000310e-03
-6.090716500000000096e-03
-3.691468000000000266e-03
-1.942461400000000064e-03
-1.048053600000000167e-03
-3.521390400000000247e-03
-5.481529900000000483e-03
-1.285020000000000107e-05
-6.555477500000000263e-03
-6.423309200000000378e-03
-4.605840800000000207e-03
-2.444212100000000328e-03
-1.192176700000000108e-03
-1.166306900000000073e-03
-2.611022699999999974e-03
-4.924603200000000555e-03
-6.312073900000000383e-03
-6.547104300000000307e-03
-5.522863499999999988e-03
-3.025048400000000370e-03
-1.525931000000000119e-03
-1.073620900000000046e-03
-4.246482900000000081e-03
-1.285020000000000107e-05
-5.903662600000000697e-03
-6.150780900000000530e-03
-3.798516700000000284e-03
-1.988465600000000229e-03
-1.040950899999999995e-03
-1.285020000000000107e-05
-1.354437700000000024e-03
-3.386959400000000286e-03
-5.406606700000000237e-03
-6.525578400000000764e-03
-6.448803900000000221e-03
-1.209165100000000144e-03
-1.281390000000000110e-05
0.000000000000000000e+00
-1.140570200000000107e-03
-2.479423100000000164e-03
-4.838209200000000501e-03
-6.267533800000000752e-03
-6.545059400000000777e-03
-5.629633900000000080e-03
-3.104460700000000097e-03
-1.574028500000000056e-03
-1.057080200000000024e-03
-1.725339000000000213e-03
-4.139446300000000287e-03
-5.842799600000000287e-03
-6.595613200000000238e-03
-3.918669700000000297e-03
-1.289860000000000048e-05
-2.060109700000000311e-03
-1.046093400000000029e-03
-1.321162700000000096e-03
-5.345247600000000224e-03
-1.283810000000000165e-05
-6.515958900000000387e-03
-4.864345200000000022e-03
-2.593985900000000348e-03
-1.262840700000000121e-03
-1.138985100000000162e-03
-2.386870200000000206e-03
-1.287440000000000162e-05
-4.767291100000000358e-03
-6.235117900000000830e-03
-6.575067400000000548e-03
-5.744075700000000201e-03
-3.223851400000000370e-03
-1.650875600000000203e-03
-1.069954600000000118e-03
-1.673296900000000205e-03
-4.048526900000000081e-03
-5.802518700000000237e-03
-6.609891200000000619e-03
-6.281799700000000042e-03
-4.063772900000000091e-03
-2.137501300000000087e-03
-1.083603400000000177e-03
-1.299382699999999989e-03
-5.285703500000000707e-03
-6.496296400000000498e-03
-6.512377300000000285e-03
-5.013380900000000313e-03
-1.282600000000000053e-05
-2.675310000000000188e-03
-1.134483900000000023e-03
-2.267406900000000329e-03
-4.689548600000000185e-03
-6.190989200000000109e-03
-1.283810000000000165e-05
-6.577910900000000054e-03
-5.854790700000000146e-03
-1.717970100000000121e-03
-1.281390000000000110e-05
-1.601882700000000024e-03
-1.278970000000000055e-05
-5.729652500000000613e-03
-6.610484100000000272e-03
-6.320991600000000835e-03
-4.180562100000000114e-03
-2.210924099999999996e-03
-1.093985200000000078e-03
-1.267850100000000087e-03
-3.048752300000000161e-03
-5.211760400000000314e-03
-6.468599500000000828e-03
-1.287440000000000162e-05
-6.529946500000000618e-03
-5.126128700000000434e-03
-2.753657500000000237e-03
-1.359701200000000120e-03
-1.124949100000000122e-03
-2.180589400000000275e-03
-4.604255700000000479e-03
-6.142105200000000202e-03
-6.597839600000000512e-03
-5.941668700000000448e-03
-3.442897700000000123e-03
-1.792699700000000050e-03
-1.061896000000000107e-03
-3.830581700000000242e-03
-5.675008900000000356e-03
-1.281390000000000110e-05
-6.611911900000000571e-03
-6.370879900000000172e-03
-4.320752700000000425e-03
-2.282689200000000140e-03
-1.131434699999999977e-03
-1.238217200000000075e-03
-5.144121400000000767e-03
-6.543365400000000776e-03
-1.283810000000000165e-05
0.000000000000000000e+00
-5.255864900000000589e-03
-2.833650600000000262e-03
-1.405911100000000174e-03
-1.111397100000000113e-03
-2.064514099999999967e-03
-6.078023600000000311e-03
-1.278970000000000055e-05
-6.013143400000000444e-03
-1.844003700000000114e-03
-1.280180000000000167e-05
-1.058072400000000099e-03
-1.280180000000000167e-05
-1.490344900000000090e-03
-3.707234300000000326e-03
-6.588837200000000234e-03
-1.282600000000000053e-05
-6.392163800000000458e-03
-4.430765900000000444e-03
-2.349989399999999947e-03
-1.148592500000000100e-03
-1.212444200000000090e-03
-5.052935799999999991e-03
-1.277760000000000113e-05
-6.389622800000000456e-03
-6.540098400000000402e-03
-5.366604100000000113e-03
-1.462817400000000073e-03
-1.277760000000000113e-05
-1.114059100000000177e-03
-1.982270400000000089e-03
-4.423046100000000390e-03
-6.029381600000000528e-03
-6.611391600000000521e-03
-6.093051800000000642e-03
-3.665138400000000213e-03
-1.071648600000000119e-03
-1.283810000000000165e-05
-1.471021200000000159e-03
-5.548660700000000202e-03
-6.596678000000000784e-03
-1.282600000000000053e-05
-6.445597400000000095e-03
-4.578446400000000041e-03
-2.443062599999999956e-03
-1.210024200000000150e-03
-1.214767399999999980e-03
-5.002575600000000629e-03
-6.371666400000000792e-03
-6.576543600000000871e-03
-1.282600000000000053e-05
-5.504241600000000199e-03
-3.025254100000000258e-03
-1.538006800000000021e-03
-4.343137700000000191e-03
-1.281390000000000110e-05
-5.983232200000000722e-03
-6.618566900000000079e-03
-1.281390000000000110e-05
-6.166426200000000094e-03
-3.781056400000000223e-03
-2.003663200000000214e-03
-1.087463299999999987e-03
-1.412638700000000153e-03
-5.443378600000000657e-03
-6.525638900000000145e-03
-1.285020000000000107e-05
-6.406780600000000145e-03
-4.639551400000000575e-03
-2.451145400000000196e-03
-1.178080200000000037e-03
-2.529638100000000320e-03
-1.281390000000000110e-05
-4.863982200000000269e-03
-6.265186400000000849e-03
-6.506847600000000703e-03
-3.045424800000000407e-03
-1.558443700000000090e-03
-1.276550000000000170e-05
-1.828031700000000166e-03
-1.283810000000000165e-05
-4.274143499999999950e-03
-6.711373900000000385e-03
-6.319418600000000462e-03
-1.283810000000000165e-05
-4.017514600000000012e-03
-2.202454099999999991e-03
-1.220333400000000014e-03
-1.520897400000000141e-03
-3.498727100000000121e-03
-5.526856500000000734e-03
-6.662744000000000826e-03
-6.591281400000000186e-03
-2.675685100000000163e-03
-1.286230000000000050e-05
-1.355200000000000198e-03
-1.247836700000000019e-03
-4.881757100000000058e-03
-6.315498200000000187e-03
-5.740966000000000125e-03
-1.285020000000000107e-05
0.000000000000000000e+00
-3.228909200000000361e-03
-1.680617400000000055e-03
-1.137726700000000167e-03
-1.769044200000000067e-03
-4.147855800000000044e-03
-5.866055800000000500e-03
-6.280190400000000735e-03
-4.040056900000000076e-03
-1.288650000000000105e-05
-2.150968600000000269e-03
-1.128252400000000081e-03
-1.368086500000000082e-03
-3.271961000000000314e-03
-5.349857700000000202e-03
-6.517991700000000561e-03
-1.286230000000000050e-05
-4.969203800000000434e-03
-2.676169099999999978e-03
-1.337292000000000125e-03
-1.190531100000000132e-03
-4.761967100000000230e-03
-1.289860000000000048e-05
-6.586090500000000778e-03
-1.283810000000000165e-05
-5.819168300000000099e-03
-3.298097000000000268e-03
-1.115704700000000153e-03
-1.282600000000000053e-05
-1.677955400000000208e-03
-4.030050200000000367e-03
-6.622596200000000627e-03
-1.281390000000000110e-05
-6.305564100000000081e-03
-4.138768699999999939e-03
-1.122529100000000182e-03
-1.287440000000000162e-05
-1.324937900000000080e-03
-3.138014000000000168e-03
-5.256082700000000267e-03
-6.488298300000000518e-03
-6.512885500000000112e-03
-2.735071900000000250e-03
-1.281390000000000110e-05
-1.159591400000000100e-03
-2.246836900000000192e-03
-4.645988600000000406e-03
-6.156927700000000211e-03
