1.531860000000000272e-05
-1.930252500000000093e-03
-1.583272900000000025e-03
-3.672592000000000131e-03
-3.815698700000000419e-03
-2.401063500000000326e-03
-1.689123700000000079e-03
7.689671000000001004e-04
-1.289860000000000048e-05
2.386543500000000255e-03
2.546566000000000107e-03
3.946644899999999893e-03
4.296540599999999939e-03
3.701462600000000186e-03
-1.275340000000000058e-05
7.772193000000001024e-04
-6.087752000000000527e-04
-1.840385800000000210e-03
-4.101924199999999916e-03
-3.119041200000000416e-03
-2.864566100000000282e-03
-1.287440000000000162e-05
-3.525540700000000423e-03
-6.099852000000000225e-04
-1.287440000000000162e-05
2.691415099999999987e-03
2.624090700000000168e-03
4.735613300000000164e-03
4.673395099999999927e-03
-1.283810000000000165e-05
3.600076700000000036e-03
2.728743600000000259e-03
-1.240032200000000138e-03
-1.638533600000000165e-03
9.999903430000001148e-02
1.014957922000000040e-01
-3.347985300000000039e-03
-2.844637400000000257e-03
2.154284000000000125e-04
1.653573900000000069e-03
2.661140900000000080e-03
3.280648800000000431e-03
4.871871399999999977e-03
4.324201200000000675e-03
3.829202300000000402e-03
-1.239040000000000084e-05
-1.534280000000000157e-05
-1.277760000000000113e-05
-1.596135200000000113e-03
-1.285020000000000107e-05
-3.470280000000000066e-03
-1.289860000000000048e-05
-2.646766100000000083e-03
4.985225409999999996e-02
-1.901297200000000211e-03
7.941956000000000232e-04
2.776986300000000053e-03
3.818626900000000185e-03
4.938832800000000044e-03
3.940050400000000633e-03
4.141273400000000139e-03
-3.387031999999999998e-04
-1.946708500000000073e-03
-2.140090700000000113e-03
-1.286230000000000050e-05
-3.733321900000000255e-03
1.564844600000000118e-03
-3.489147530000000219e-02
-7.724519000000000437e-04
2.782298200000000391e-03
4.287066300000000503e-03
-1.277760000000000113e-05
5.023254500000000171e-03
3.484424900000000162e-03
4.503607900000000490e-03
-1.281390000000000110e-05
-1.971864399999999958e-03
-1.288650000000000105e-05
0.000000000000000000e+00
-2.489780700000000270e-03
-1.282600000000000053e-05
0.000000000000000000e+00
0.000000000000000000e+00
-2.895735700000000214e-03
-3.109675800000000385e-03
-3.114830400000000426e-03
-1.286230000000000050e-05
1.390665100000000164e-03
-1.277760000000000113e-05
2.828713800000000334e-03
5.004197000000000159e-03
4.497824100000000561e-03
-1.281390000000000110e-05
3.576856800000000058e-03
2.155252000000000079e-04
-1.624558100000000156e-03
-1.287440000000000162e-05
0.000000000000000000e+00
-3.329024600000000077e-03
-1.283810000000000165e-05
-4.046748200000000253e-03
-3.671152100000000043e-03
6.522747000000000180e-04
2.150206300000000095e-03
2.669877100000000222e-03
-1.277760000000000113e-05
0.000000000000000000e+00
3.589319800000000376e-03
4.154317200000000321e-03
-1.282600000000000053e-05
3.966597799999999931e-03
9.808380999999999697e-04
-3.499441000000000162e-04
-1.907770700000000061e-03
-1.863266900000000231e-03
-1.287440000000000162e-05
-3.362154400000000147e-03
-1.281390000000000110e-05
-3.655458400000000455e-03
-1.012806300000000095e-03
-1.283810000000000165e-05
2.639965900000000067e-03
4.532309100000000458e-03
4.512319900000000619e-03
3.015900800000000017e-03
5.009883999999999822e-04
-1.048138299999999993e-03
-1.276550000000000170e-05
0.000000000000000000e+00
-1.651069200000000086e-03
-1.282600000000000053e-05
0.000000000000000000e+00
-2.736027800000000090e-03
-3.980500700000000336e-03
-2.854111700000000126e-03
-3.219882600000000070e-03
-7.400360000000000412e-05
-1.282600000000000053e-05
1.517146400000000169e-03
2.646366800000000095e-03
4.876481499999999955e-03
-1.283810000000000165e-05
3.779846400000000470e-03
4.446665300000000355e-03
1.988550300000000055e-03
1.512016000000000195e-04
-1.278970000000000055e-05
-3.740049500000000235e-03
-2.686587200000000331e-03
-1.276550000000000170e-05
-3.537059900000000257e-03
-1.281390000000000110e-05
-2.260522000000000052e-03
-1.277760000000000113e-05
1.914292600000000151e-03
-1.283810000000000165e-05
3.682477700000000211e-03
4.890820000000000584e-03
-1.283810000000000165e-05
4.079139900000000596e-03
4.017066900000000433e-03
1.045996599999999980e-03
-1.281390000000000110e-05
-1.651892000000000074e-04
-1.844899100000000139e-03
-3.635130400000000442e-03
-3.600996300000000074e-03
-3.603150100000000310e-03
2.445760900000000255e-03
4.442115700000000625e-03
-2.949762200000000372e-03
-3.318715400000000430e-03
1.216328300000000130e-03
4.726054300000000034e-03
4.773934000000000510e-03
2.050865300000000342e-03
-3.006777400000000110e-03
-2.494318200000000211e-03
5.201185000000000313e-04
2.868256600000000222e-03
5.237751200000000627e-03
3.907223100000000067e-03
4.262781600000000413e-03
-2.000045300000000310e-03
-3.808317700000000104e-03
-3.680360200000000210e-03
-3.756118300000000233e-03
-1.355744500000000043e-03
8.982556000000000264e-04
2.566579399999999959e-03
2.509007600000000369e-03
4.215954600000000260e-03
5.108426400000000249e-03
3.516247900000000429e-03
-1.295910000000000100e-05
4.460773900000000215e-03
-1.281390000000000110e-05
3.396687800000000070e-03
-1.277760000000000113e-05
6.226781000000000243e-04
-1.281390000000000110e-05
-7.942077000000000294e-04
-1.288650000000000105e-05
-1.801254400000000099e-03
-2.303065600000000178e-03
-1.287440000000000162e-05
-4.149598200000000070e-03
-1.283810000000000165e-05
0.000000000000000000e+00
-2.953392200000000065e-03
-1.281390000000000110e-05
0.000000000000000000e+00
-2.997399900000000290e-03
-1.278970000000000055e-05
0.000000000000000000e+00
0.000000000000000000e+00
-3.402290100000000123e-03
-3.171531000000000111e-04
2.773779800000000361e-03
4.894256400000000611e-03
-1.283810000000000165e-05
3.626115900000000374e-03
-1.285020000000000107e-05
2.321457600000000066e-03
-1.278970000000000055e-05
-1.452084699999999992e-03
-3.222968100000000134e-03
-2.619008700000000165e-03
-2.568200800000000356e-03
1.844717600000000046e-03
3.455384900000000020e-03
4.008766300000000081e-03
1.359628600000000083e-03
-1.718514600000000184e-03
-3.691746300000000192e-03
-1.281390000000000110e-05
0.000000000000000000e+00
-2.676181200000000201e-03
-1.287440000000000162e-05
0.000000000000000000e+00
-3.632044900000000378e-03
-1.529427900000000177e-03
8.682839000000000572e-04
2.272246900000000208e-03
2.715155300000000015e-03
4.096116200000000408e-03
4.898818100000000564e-03
3.816025400000000369e-03
-1.277760000000000113e-05
4.367410300000000058e-03
-1.285020000000000107e-05
3.478822600000000109e-03
6.478219000000000121e-04
-1.287440000000000162e-05
0.000000000000000000e+00
-5.338157000000000058e-04
-1.283810000000000165e-05
-1.875451600000000189e-03
-2.350993700000000245e-03
-3.815347800000000456e-03
-3.267459800000000174e-03
-1.281390000000000110e-05
-2.895844600000000053e-03
-1.282600000000000053e-05
0.000000000000000000e+00
-3.428801200000000052e-03
-1.286230000000000050e-05
-4.373908000000000136e-04
2.900382099999999994e-03
4.856274500000000438e-03
4.565063800000000553e-03
-1.188849200000000137e-03
-1.278970000000000055e-05
-4.048732600000000403e-03
-3.304473700000000284e-03
3.895111000000000255e-04
1.536833100000000070e-03
3.095881800000000253e-03
4.396607600000000497e-03
4.429192900000000072e-03
1.395541400000000062e-03
1.659635999999999978e-04
-1.281390000000000110e-05
-1.904007600000000083e-03
-1.282600000000000053e-05
-1.714436900000000045e-03
-1.278970000000000055e-05
0.000000000000000000e+00
-3.450750600000000029e-03
-1.281390000000000110e-05
-3.936589800000000160e-03
-1.277760000000000113e-05
1.920512000000000087e-04
-5.419562170000000179e-02
-2.614375610000000197e-02
-3.711505600000000130e-03
-1.278970000000000055e-05
-1.723899100000000125e-03
7.567824000000000339e-04
-1.285020000000000107e-05
2.286065100000000353e-03
2.741206600000000142e-03
3.739335600000000086e-03
-1.281390000000000110e-05
5.260305600000000047e-03
3.672894500000000069e-03
4.289510500000000455e-03
3.722734400000000249e-03
7.334415000000001029e-04
-4.468651000000000459e-04
-2.012484100000000182e-03
-1.287440000000000162e-05
-1.945280700000000208e-03
-1.286230000000000050e-05
-4.071057099999999922e-03
-1.283810000000000165e-05
-3.268101100000000286e-03
-2.721217400000000303e-03
-1.283810000000000165e-05
-3.588702700000000276e-03
-1.286230000000000050e-05
-6.388921000000000964e-04
-1.287440000000000162e-05
1.082224000000000120e-03
2.819263700000000043e-03
-1.285020000000000107e-05
0.000000000000000000e+00
2.541496100000000327e-03
-1.283810000000000165e-05
4.657907100000000661e-03
-1.285020000000000107e-05
0.000000000000000000e+00
0.000000000000000000e+00
4.871447899999999977e-03
-1.285020000000000107e-05
3.478060300000000368e-03
-1.283810000000000165e-05
4.626205100000000021e-03
-1.275340000000000058e-05
2.681093800000000117e-03
4.207654000000000017e-04
-1.265551099999999993e-03
-1.281390000000000110e-05
-1.634939900000000057e-03
-2.816601699999999979e-03
-1.278970000000000055e-05
-4.104368399999999868e-03
-1.285020000000000107e-05
-2.640570900000000377e-03
-2.931551700000000361e-03
2.189495000000000015e-04
1.659454500000000048e-03
-1.285020000000000107e-05
2.735822100000000201e-03
3.100564500000000268e-03
-1.283810000000000165e-05
5.095527800000000142e-03
4.252508700000000134e-03
3.850232100000000341e-03
1.644704600000000076e-03
-1.689244700000000141e-03
-1.646604300000000182e-03
-3.625486700000000052e-03
-3.652675400000000329e-03
-1.282600000000000053e-05
0.000000000000000000e+00
-2.585745800000000243e-03
-3.634634300000000404e-03
2.185296300000000302e-03
2.598281400000000164e-03
4.938518200000000316e-03
3.891807700000000404e-03
4.275571300000000248e-03
3.788243800000000439e-03
-2.181920400000000090e-03
-3.825983700000000053e-03
-3.320530400000000059e-03
-2.815803100000000003e-03
-3.529158600000000326e-03
-8.340772000000000854e-04
2.508112200000000343e-03
-1.281390000000000110e-05
2.824418300000000083e-03
-1.276550000000000170e-05
0.000000000000000000e+00
0.000000000000000000e+00
4.427704600000000393e-03
-1.287440000000000162e-05
0.000000000000000000e+00
4.823568200000000368e-03
-1.282600000000000053e-05
0.000000000000000000e+00
2.852441900000000138e-03
-9.405088000000001117e-04
-2.706286000000000021e-03
-1.282600000000000053e-05
-3.895086800000000134e-03
-2.949617000000000298e-03
-3.026403600000000197e-03
1.374027600000000092e-03
2.859580900000000328e-03
3.107328400000000049e-03
4.756606800000000301e-03
4.593438300000000571e-03
-1.283810000000000165e-05
1.762824800000000131e-03
-1.285020000000000107e-05
2.316182000000000180e-04
-1.285020000000000107e-05
0.000000000000000000e+00
-1.621194300000000166e-03
-1.287440000000000162e-05
0.000000000000000000e+00
-1.836646900000000028e-03
-3.579276800000000432e-03
-2.121178400000000176e-03
6.745024000000000288e-04
-1.277760000000000113e-05
1.981072500000000125e-03
-1.280180000000000167e-05
0.000000000000000000e+00
2.905197900000000295e-03
-1.282600000000000053e-05
3.465149600000000038e-03
7.719800000000000186e-06
4.050632299999999859e-03
8.901123000000000802e-04
-1.594538000000000216e-04
-2.060787300000000224e-03
-1.282600000000000053e-05
-3.859960500000000124e-03
-3.563208000000000434e-03
-2.510713700000000159e-03
-1.285020000000000107e-05
-3.715171900000000058e-03
9.226734000000000758e-04
2.703853900000000293e-03
2.594276300000000063e-03
4.315053600000000322e-03
5.121724300000000778e-03
3.440477700000000184e-03
4.600262700000000600e-03
5.319281000000000139e-04
-9.661487000000000287e-04
-1.281390000000000110e-05
-1.810898100000000056e-03
-2.440098099999999954e-03
-2.809837800000000198e-03
-3.222931800000000332e-03
-1.292280000000000102e-05
-2.899160000000000208e-05
-1.283810000000000165e-05
1.417672300000000132e-03
-1.283810000000000165e-05
2.779200600000000104e-03
4.488301400000000232e-03
-1.278970000000000055e-05
3.645766300000000040e-03
4.577853500000000388e-03
-1.285020000000000107e-05
2.304324000000000064e-04
-1.540233200000000078e-03
-2.483149900000000340e-03
-1.289860000000000048e-05
-3.627882500000000413e-03
-2.285581100000000105e-03
5.848414000000000347e-04
2.058911800000000347e-03
-1.281390000000000110e-05
2.599660800000000004e-03
-1.281390000000000110e-05
0.000000000000000000e+00
5.103671100000000196e-03
-1.285020000000000107e-05
4.156700900000000025e-03
4.055302900000000085e-03
-1.278970000000000055e-05
1.145422299999999992e-03
-2.390234000000000195e-04
-1.777586800000000109e-03
-1.918684900000000235e-03
-3.397486400000000045e-03
-1.982464000000000134e-04
-3.621239600000000260e-03
-1.198916400000000094e-03
1.002388200000000175e-03
-1.285020000000000107e-05
2.441429100000000203e-03
2.188369700000000143e-03
4.813004899999999940e-03
-1.287440000000000162e-05
3.741090100000000335e-03
3.211412600000000065e-03
-1.278970000000000055e-05
5.463876000000000540e-04
-7.834992000000000692e-04
-1.784967800000000207e-03
-3.866615500000000066e-03
-1.282600000000000053e-05
-3.065305100000000407e-03
-3.064470200000000196e-03
-1.550978000000000111e-04
-1.285020000000000107e-05
1.308227800000000187e-03
2.712444900000000360e-03
4.638656000000000550e-03
-1.286230000000000050e-05
4.694824200000000287e-03
3.677928100000000047e-03
4.513227400000000000e-03
2.520309000000000199e-04
-1.360572400000000133e-03
-3.035732699999999992e-03
-3.926679900000000500e-03
-2.681940800000000118e-03
-3.458651900000000393e-03
-2.465919500000000181e-03
-1.281390000000000110e-05
5.623474999999999958e-04
-1.283810000000000165e-05
2.932422900000000374e-03
3.375633800000000118e-03
-1.282600000000000053e-05
4.967897000000000632e-03
4.262987299999999868e-03
4.241219400000000202e-03
1.160728800000000033e-03
0.000000000000000000e+00
-1.852413200000000088e-03
-1.285020000000000107e-05
-3.552330100000000278e-03
-3.780947500000000384e-03
-2.468387900000000145e-03
-3.696537900000000047e-03
-1.353590700000000023e-03
8.531226000000000911e-04
2.433890800000000024e-03
2.781160800000000242e-03
3.916394899999999998e-03
5.215717100000000390e-03
4.417806800000000089e-03
3.423380400000000309e-03
-1.285020000000000107e-05
5.940979000000000095e-04
-2.029133700000000044e-03
-2.116459400000000358e-03
-1.287440000000000162e-05
-4.088130200000000651e-03
-2.824406200000000294e-03
-3.472445900000000092e-03
-3.053798000000000471e-04
1.150673700000000082e-03
2.938001000000000414e-03
2.624840900000000119e-03
4.773885600000000486e-03
4.839564400000000328e-03
3.435141600000000267e-03
-1.278970000000000055e-05
4.677206599999999929e-03
3.645609000000000284e-04
-1.461994600000000085e-03
-1.634455900000000026e-03
-2.984670700000000270e-03
-4.122784600000000202e-03
-6.343884800000000428e-03
-3.434209900000000440e-03
4.200757000000000276e-04
1.820602300000000043e-03
2.782225600000000354e-03
3.204854400000000172e-03
5.217749900000000565e-03
4.110152200000000665e-03
3.936275200000000432e-03
4.335345300000000533e-03
1.364795300000000130e-03
-1.565740000000000022e-05
-1.856031100000000208e-03
-1.629156100000000128e-03
-3.790312900000000415e-03
-2.515396400000000175e-03
-1.281390000000000110e-05
-3.698098800000000196e-03
-1.633754100000000100e-03
8.442049000000000731e-04
2.430635900000000307e-03
2.514622000000000211e-03
4.176157700000000458e-03
-1.289860000000000048e-05
5.016018700000000365e-03
3.691431700000000465e-03
3.541899900000000136e-03
7.255523000000000701e-04
-6.464062000000000453e-04
-1.740984300000000210e-03
-2.289332100000000293e-03
-3.995637800000000073e-03
-3.120239100000000380e-03
-5.392486000000000805e-04
1.260614300000000064e-03
2.644249300000000094e-03
4.737379900000000636e-03
4.664005500000000318e-03
3.702624200000000348e-03
4.557404499999999879e-03
2.545198700000000057e-03
3.422243000000000160e-04
-1.209951600000000113e-03
-1.709572700000000153e-03
-3.002953800000000319e-03
-3.872532400000000281e-03
-2.789364600000000111e-03
-1.285020000000000107e-05
-3.357713700000000256e-03
-1.286230000000000050e-05
-2.774167000000000126e-03
-1.289860000000000048e-05
0.000000000000000000e+00
3.256594000000000350e-04
1.659115700000000091e-03
3.374375400000000341e-03
4.860315900000000341e-03
4.372068800000000061e-03
-1.283810000000000165e-05
4.350724400000000394e-03
1.509160400000000195e-03
6.364600000000000693e-05
-1.666738700000000096e-03
-1.887757300000000209e-03
-3.433665400000000378e-03
-3.752573000000000367e-03
-2.625506400000000243e-03
-3.583899000000000199e-03
-1.817795100000000122e-03
8.409379000000000246e-04
2.135299100000000259e-03
3.831719100000000391e-03
5.045954100000000532e-03
3.904645800000000264e-03
3.744925800000000349e-03
7.130893000000000778e-04
-3.362469000000000417e-04
-1.985367999999999942e-03
-2.108981599999999994e-03
-1.288650000000000105e-05
-3.813399700000000107e-03
-1.286230000000000050e-05
7.795545999999999986e-04
-3.546679400000000201e-03
-6.548399000000000320e-04
1.027761900000000173e-03
2.754262500000000113e-03
4.355685399999999902e-03
4.605030100000000008e-03
-1.918261400000000234e-03
-2.571576700000000135e-03
-4.157668900000000521e-03
-2.775413300000000114e-03
-3.200800900000000046e-03
-3.009608800000000261e-03
2.382248000000000167e-04
2.911489900000000051e-03
4.542085900000000266e-03
-1.813923100000000089e-03
-1.622440600000000155e-03
-1.281390000000000110e-05
-3.972575199999999959e-03
-2.369131600000000219e-03
-1.981931600000000349e-03
7.134281000000000346e-04
2.215195400000000234e-03
5.245337899999999963e-03
3.769525100000000167e-03
4.223529200000000240e-03
-1.285020000000000107e-05
3.906497100000000562e-03
8.985097000000000483e-04
-1.283810000000000165e-05
-3.389573000000000217e-04
-1.950641000000000137e-03
-1.286230000000000050e-05
-1.855377700000000090e-03
-4.019668400000000683e-03
-1.281390000000000110e-05
-3.330174100000000015e-03
-3.638457900000000196e-03
1.061412000000000076e-03
2.738411500000000227e-03
2.524834400000000242e-03
4.568911600000000357e-03
4.940647800000000540e-03
3.493318400000000167e-03
2.931926800000000336e-03
-2.690035700000000148e-03
-4.058243200000000508e-03
-3.193516700000000215e-03
6.876430000000000162e-05
3.016868800000000080e-03
4.379449799999999941e-03
3.777039200000000332e-03
4.469268100000000667e-03
1.315633000000000080e-04
-1.582510600000000068e-03
-1.643228400000000186e-03
-3.436424200000000057e-03
-3.756408700000000381e-03
3.116306600000000315e-03
-2.148427600000000267e-03
6.716105000000000642e-04
-1.278970000000000055e-05
2.082373700000000015e-03
2.646947600000000393e-03
-1.288650000000000105e-05
3.783040800000000373e-03
-1.285020000000000107e-05
4.962403599999999984e-03
-1.281390000000000110e-05
3.984505800000000438e-03
4.171596000000000505e-03
3.962858900000000399e-03
1.001287100000000044e-03
-1.281390000000000110e-05
-1.786189900000000183e-03
-2.051204100000000082e-03
-3.726582200000000053e-03
-3.456631200000000442e-03
-2.709831300000000321e-03
-3.545614600000000088e-03
-1.072096300000000132e-03
1.065901099999999992e-03
2.472683399999999962e-03
2.782685400000000156e-03
4.317630900000000126e-03
4.892477699999999916e-03
3.694142100000000119e-03
4.479190100000000549e-03
-1.277760000000000113e-05
3.083636600000000047e-03
4.749734000000000356e-04
-8.233929000000000291e-04
-2.574577500000000373e-03
-3.027117500000000346e-03
-3.180751200000000393e-03
2.815173900000000114e-03
4.680667200000000402e-03
3.643080100000000397e-03
-1.288650000000000105e-05
4.520741500000000600e-03
-1.289860000000000048e-05
2.000952800000000125e-03
2.293918000000000150e-04
-1.276550000000000170e-05
-1.458800200000000182e-03
-1.851433100000000019e-03
-3.056242200000000315e-03
-3.961455300000000547e-03
-3.475071600000000354e-03
6.413605000000000608e-04
1.833682400000000027e-03
-1.281390000000000110e-05
2.924666800000000084e-03
-1.285020000000000107e-05
0.000000000000000000e+00
5.073832500000000079e-03
4.121356799999999904e-03
3.966488900000000525e-03
-1.274130000000000115e-05
4.145689900000000018e-03
-1.287440000000000162e-05
1.012588499999999983e-03
-1.289860000000000048e-05
-3.773990000000000097e-05
-1.285020000000000107e-05
-1.991599500000000317e-03
-1.834323700000000138e-03
-3.706338900000000301e-03
-2.470081900000000146e-03
-3.682622900000000286e-03
-1.278970000000000055e-05
-1.203756399999999973e-03
-1.285020000000000107e-05
8.977716000000001036e-04
-1.278970000000000055e-05
2.548562500000000047e-03
-1.280180000000000167e-05
2.727352100000000196e-03
-1.283810000000000165e-05
4.055774800000000110e-03
-1.286230000000000050e-05
5.171273799999999941e-03
-1.289860000000000048e-05
0.000000000000000000e+00
3.530513800000000153e-03
-1.285020000000000107e-05
4.463375400000000465e-03
-1.285020000000000107e-05
3.253738400000000079e-03
-1.291070000000000160e-05
0.000000000000000000e+00
0.000000000000000000e+00
5.572654999999999926e-04
-1.278970000000000055e-05
0.000000000000000000e+00
-2.192568400000000344e-03
-4.129294400000000503e-03
-1.281390000000000110e-05
0.000000000000000000e+00
0.000000000000000000e+00
-3.011435900000000113e-03
-1.283810000000000165e-05
0.000000000000000000e+00
-2.897841099999999993e-03
-1.283810000000000165e-05
0.000000000000000000e+00
-3.385398500000000137e-03
-1.286230000000000050e-05
2.961946900000000330e-03
4.848191700000000631e-03
3.456522300000000169e-03
3.153018000000000379e-04
-4.064075400000000463e-03
-3.517312700000000108e-03
5.036988000000000706e-04
1.898127000000000104e-03
2.755823400000000263e-03
-1.286230000000000050e-05
3.319017900000000368e-03
-1.286230000000000050e-05
5.202830600000000506e-03
-1.280180000000000167e-05
4.020140299999999840e-03
-1.278970000000000055e-05
3.942046900000000138e-03
-1.275340000000000058e-05
0.000000000000000000e+00
4.258679700000000262e-03
-1.277760000000000113e-05
1.239741799999999989e-03
-1.055120000000000022e-04
-1.285020000000000107e-05
-1.884333000000000188e-03
-1.278970000000000055e-05
0.000000000000000000e+00
-1.673442100000000063e-03
-3.833013800000000405e-03
-2.532275900000000371e-03
-1.457372400000000101e-03
-1.280180000000000167e-05
8.712000000000000190e-07
-3.052996980000000082e-02
2.526879300000000206e-03
-1.277760000000000113e-05
4.997457299999999956e-03
3.613713400000000305e-03
4.444003300000000725e-03
3.404952100000000186e-03
6.293935999999999975e-04
-7.449486000000000389e-04
-1.731122800000000142e-03
-2.379755400000000028e-03
-3.978661500000000260e-03
-3.013650200000000164e-03
-2.975789300000000054e-03
-1.280180000000000167e-05
-3.330561300000000214e-03
-3.955127000000000122e-04
2.676798300000000300e-03
-1.287440000000000162e-05
2.835042100000000325e-03
4.763866800000000554e-03
4.617130100000000140e-03
3.660177400000000272e-03
2.373076200000000073e-03
2.576816000000000436e-04
-1.290537600000000009e-03
-1.693358700000000081e-03
-3.813605400000000430e-03
-2.725258800000000207e-03
-1.281390000000000110e-05
0.000000000000000000e+00
-3.379675200000000022e-03
-2.626401800000000269e-03
4.284368000000000312e-04
1.746780200000000146e-03
3.445305600000000273e-03
3.928434399999999882e-03
-1.689486700000000048e-03
-2.596526900000000349e-03
-1.281390000000000110e-05
0.000000000000000000e+00
-3.574085900000000156e-03
-1.281390000000000110e-05
2.215340600000000309e-03
2.815706300000000387e-03
4.996755500000000030e-03
3.808535500000000216e-03
4.295391100000000434e-03
3.569439500000000376e-03
-1.976075199999999948e-03
-2.196779200000000334e-03
-1.293490000000000045e-05
-3.823091800000000089e-03
-1.292280000000000102e-05
-3.326507800000000088e-03
-2.744606700000000368e-03
-3.497565500000000393e-03
-1.281390000000000110e-05
-4.679312000000000575e-04
1.070620100000000026e-03
-1.277760000000000113e-05
2.791070700000000335e-03
2.807853400000000048e-03
-1.283810000000000165e-05
4.465674400000000342e-03
-1.283810000000000165e-05
4.939704000000000490e-03
-1.278970000000000055e-05
0.000000000000000000e+00
3.508467600000000127e-03
4.560949800000000179e-03
2.518784400000000177e-03
-1.285020000000000107e-05
0.000000000000000000e+00
3.808596000000000355e-04
-1.282600000000000053e-05
-1.887793600000000228e-03
-2.663585100000000032e-03
-1.283810000000000165e-05
-2.664649900000000144e-03
-1.283810000000000165e-05
-3.269165900000000399e-03
-2.856858400000000017e-03
3.607252000000000136e-04
1.545605600000000013e-03
3.001985800000000256e-03
-1.287440000000000162e-05
5.062664200000000642e-03
4.366018800000000429e-03
3.688515600000000054e-03
4.455861300000000733e-03
1.486037300000000051e-03
-1.901430300000000063e-03
-1.276550000000000170e-05
-1.604798800000000001e-03
-3.902286300000000138e-03
-2.337502200000000051e-03
-1.771064900000000018e-03
-1.282600000000000053e-05
0.000000000000000000e+00
2.300790800000000313e-03
-1.287440000000000162e-05
3.778938900000000222e-03
5.239142700000000256e-03
3.660842900000000396e-03
4.268613800000000368e-03
3.773760100000000169e-03
7.872623000000000468e-04
-1.935576500000000220e-03
-4.069217899999999846e-03
-1.283810000000000165e-05
-3.215224100000000067e-03
-1.283810000000000165e-05
0.000000000000000000e+00
-2.701712200000000279e-03
2.468400000000000287e-05
2.795838100000000177e-03
2.527435900000000058e-03
4.669039100000000296e-03
4.862856900000000343e-03
-1.282600000000000053e-05
4.605635099999999885e-03
2.758352300000000042e-03
-1.285020000000000107e-05
-1.218651500000000019e-03
-1.282600000000000053e-05
-1.619125200000000190e-03
-4.055133500000000432e-03
-1.283810000000000165e-05
-2.657051100000000152e-03
-2.933148900000000312e-03
1.664016200000000218e-03
2.712771600000000310e-03
3.092941500000000263e-03
5.055416300000000612e-03
4.262842100000000661e-03
3.826431400000000066e-03
-1.281390000000000110e-05
4.410619400000000308e-03
6.736070000000000035e-05
-1.651190200000000148e-03
-1.285020000000000107e-05
-1.662769900000000012e-03
-1.275340000000000058e-05
-3.556807100000000405e-03
-2.568261300000000170e-03
-3.570032400000000029e-03
-1.285020000000000107e-05
7.773403000000000561e-04
2.142244500000000350e-03
-1.283810000000000165e-05
2.620400200000000228e-03
4.938143100000000341e-03
3.893719500000000083e-03
2.123719400000000177e-03
-1.779619600000000067e-03
-2.163068599999999966e-03
-2.768830900000000209e-03
-3.493354700000000403e-03
-1.283810000000000165e-05
-9.139735000000000610e-04
-1.277760000000000113e-05
1.111469700000000151e-03
-1.283810000000000165e-05
2.522644300000000204e-03
2.807986500000000333e-03
4.391223100000000122e-03
-1.283810000000000165e-05
4.832534299999999977e-03
-1.283810000000000165e-05
4.471712300000000619e-03
2.916741300000000141e-03
4.173653000000000475e-04
-9.238108000000000083e-04
-1.868155300000000135e-03
-2.649633800000000036e-03
-2.478080000000000167e-05
-3.064639600000000283e-03
-1.281390000000000110e-05
1.235168000000000030e-04
1.371389800000000041e-03
2.863053600000000157e-03
3.068620500000000372e-03
0.000000000000000000e+00
3.665803900000000337e-03
4.480496900000000352e-03
1.825478600000000158e-03
-1.602354600000000049e-03
-1.281390000000000110e-05
-1.819646400000000204e-03
-3.128660700000000360e-03
-3.995347399999999924e-03
1.946297100000000078e-03
2.908961000000000272e-03
-1.275340000000000058e-05
3.444579600000000335e-03
-1.277760000000000113e-05
5.153922400000000154e-03
-1.280180000000000167e-05
0.000000000000000000e+00
3.990555800000000070e-03
-1.280180000000000167e-05
9.149173000000001112e-04
-1.354837000000000120e-04
-1.285020000000000107e-05
0.000000000000000000e+00
-2.057629200000000123e-03
-3.815142100000000133e-03
-3.589428700000000215e-03
-2.463644700000000316e-03
-1.281390000000000110e-05
-1.001299200000000051e-03
4.249108599999999909e-03
-1.281390000000000110e-05
5.133013600000000710e-03
-1.281390000000000110e-05
0.000000000000000000e+00
3.437985100000000207e-03
-1.278970000000000055e-05
4.563381899999999908e-03
5.248375000000000653e-04
-9.174704000000000106e-04
-1.847609500000000227e-03
-4.178081600000000360e-03
-2.841793900000000317e-03
-3.030929000000000349e-03
-3.245716100000000087e-03
2.887773900000000036e-03
2.735676900000000127e-03
-1.277760000000000113e-05
3.583185100000000050e-03
4.606094900000000554e-03
-1.617915200000000003e-03
-3.551882400000000266e-03
-1.271710000000000060e-05
3.590541900000000352e-03
-1.285020000000000107e-05
0.000000000000000000e+00
5.109963099999999953e-03
-1.283810000000000165e-05
0.000000000000000000e+00
3.930612400000000131e-03
-1.285020000000000107e-05
-1.892488400000000032e-03
-1.282600000000000053e-05
3.112301500000000214e-03
-8.881459290000000284e-02
9.198632959999999970e-02
-3.407105900000000423e-03
-3.576747900000000219e-03
6.304826000000000354e-03
3.171901259999999889e-02
6.343884800000000428e-03
1.023817300000000102e-03
-1.282600000000000053e-05
0.000000000000000000e+00
0.000000000000000000e+00
0.000000000000000000e+00
0.000000000000000000e+00
2.420229900000000177e-03
-1.281390000000000110e-05
1.329947300000000046e-03
4.834639700000000623e-03
3.723387800000000150e-03
4.460471400000000711e-03
-1.287440000000000162e-05
5.709264000000000569e-04
-1.775336200000000040e-03
-1.285020000000000107e-05
-3.815589800000000146e-03
-3.090388400000000039e-03
-3.006644300000000259e-03
-1.283810000000000165e-05
-3.244191500000000172e-03
-1.282600000000000053e-05
-1.902604000000000122e-04
1.310538900000000071e-03
3.010238000000000150e-03
4.642358600000000279e-03
3.688043700000000463e-03
-1.286230000000000050e-05
2.211686400000000170e-03
-1.287440000000000162e-05
0.000000000000000000e+00
-1.870514800000000043e-03
-1.281390000000000110e-05
-2.954904700000000189e-03
-3.948108999999999993e-03
-1.278970000000000055e-05
-3.421867900000000184e-03
-2.504312800000000130e-03
5.685064000000000090e-04
1.701538300000000154e-03
5.011202900000000064e-03
4.241195200000000623e-03
-1.278970000000000055e-05
3.873681900000000219e-03
4.737150000000000545e-05
-1.942848600000000045e-03
-3.571641700000000204e-03
-3.777486900000000345e-03
-2.387414700000000268e-03
-3.740702900000000136e-03
-1.359459199999999996e-03
8.374410000000000751e-04
2.461031100000000277e-03
-1.278970000000000055e-05
0.000000000000000000e+00
0.000000000000000000e+00
2.720382500000000092e-03
3.939651100000000211e-03
-1.287440000000000162e-05
5.220266700000000121e-03
-1.291070000000000160e-05
3.567443000000000437e-03
4.434190200000000248e-03
4.658790400000000463e-03
-1.979027600000000161e-03
-2.073298700000000133e-03
-4.135404900000000383e-03
2.592412899999999975e-03
4.823047900000000318e-03
4.651566700000000013e-03
2.403531900000000290e-03
3.436884000000000076e-04
-1.287440000000000162e-05
-1.555503400000000100e-03
-3.052128200000000374e-03
-1.283810000000000165e-05
-4.005245200000000227e-03
-1.287440000000000162e-05
0.000000000000000000e+00
-3.462439200000000383e-03
1.844318300000000058e-03
-1.283810000000000165e-05
2.700756300000000006e-03
3.290570800000000313e-03
-1.277760000000000113e-05
0.000000000000000000e+00
5.142729900000000270e-03
-1.285020000000000107e-05
0.000000000000000000e+00
4.085431900000000352e-03
-1.283810000000000165e-05
0.000000000000000000e+00
3.956724200000000073e-03
4.313383799999999900e-03
-1.281390000000000110e-05
1.406455600000000019e-03
-5.052960000000000491e-05
-1.698948900000000128e-03
-3.610748900000000303e-03
-1.644644100000000045e-03
8.904874000000000556e-04
2.595244300000000125e-03
4.919654300000000403e-03
3.775538800000000431e-03
4.375275300000000187e-03
-1.283810000000000165e-05
3.557448400000000083e-03
-1.285020000000000107e-05
7.268591000000000895e-04
-1.287440000000000162e-05
0.000000000000000000e+00
-5.887981000000000031e-04
-1.283810000000000165e-05
0.000000000000000000e+00
-3.819098800000000210e-03
-2.900636200000000341e-03
-3.382797000000000321e-03
-1.278970000000000055e-05
-5.371432000000000853e-04
-1.283810000000000165e-05
1.243323400000000091e-03
2.620605900000000116e-03
2.891246600000000298e-03
-1.283810000000000165e-05
4.566854600000000604e-03
3.654635600000000033e-03
4.518599800000000152e-03
-5.075107840000000342e-02
-1.430220000000000174e-05
-1.122601700000000003e-03
-3.881946200000000336e-03
-3.297479900000000168e-03
-2.794616000000000201e-03
3.922336000000000117e-04
1.542278100000000042e-03
-1.285020000000000107e-05
0.000000000000000000e+00
2.907303300000000073e-03
-1.287440000000000162e-05
3.215502400000000427e-03
4.864659800000000617e-03
4.465601799999999871e-03
3.769537200000000390e-03
1.489558400000000121e-03
-1.283810000000000165e-05
1.411949000000000125e-04
-1.280180000000000167e-05
-1.749865700000000210e-03
-1.829701500000000154e-03
-3.892388500000000268e-03
-1.293490000000000045e-05
-3.643382600000000335e-03
-1.776243700000000071e-03
-1.278970000000000055e-05
2.855067600000000400e-03
5.192025299999999954e-03
-1.283810000000000165e-05
4.239452800000000597e-03
3.767577000000000252e-03
-3.299912000000000331e-04
-2.060025000000000051e-03
-3.947528200000000563e-03
-2.601427400000000043e-03
-3.614439400000000243e-03
-1.285020000000000107e-05
-6.204517000000000755e-04
2.836736100000000326e-03
2.621114100000000377e-03
-1.282600000000000053e-05
5.036431400000000204e-03
4.658475800000000736e-03
2.704543599999999996e-03
4.386129000000000438e-04
-1.169428700000000156e-03
-1.759061700000000153e-03
-1.285020000000000107e-05
-2.624840900000000119e-03
-1.286230000000000050e-05
-4.173120599999999986e-03
-1.289860000000000048e-05
0.000000000000000000e+00
-3.242872600000000147e-03
-2.972909500000000312e-03
6.158900000000000443e-06
5.709455180000000407e-02
-4.440719360000000560e-02
1.574948100000000094e-03
2.917007500000000277e-03
5.146384099999999975e-03
4.336736800000000162e-03
-1.316480000000000142e-05
4.524468299999999908e-03
1.697400100000000201e-03
1.316359000000000181e-04
-1.278970000000000055e-05
-1.534606700000000013e-03
-3.541706300000000036e-03
-1.278970000000000055e-05
-2.419249800000000325e-03
-3.640091400000000383e-03
-1.992216599999999983e-03
7.438111999999999979e-04
2.250781500000000046e-03
-1.286230000000000050e-05
2.586931599999999984e-03
5.136788800000000044e-03
-1.281390000000000110e-05
3.769162100000000414e-03
4.261595800000000239e-03
3.872169400000000095e-03
9.126304000000000230e-04
-4.036560000000000126e-04
-1.785681700000000139e-03
-3.944587900000000140e-03
-2.760651300000000353e-03
-1.287440000000000162e-05
-3.519502800000000146e-03
-8.931857000000000294e-04
-1.283810000000000165e-05
2.593550300000000124e-03
2.656869600000000275e-03
4.584351200000000466e-03
-1.285020000000000107e-05
4.788078900000000172e-03
4.533942600000000211e-03
2.928901800000000086e-03
-1.001202400000000001e-03
-1.693080400000000155e-03
-1.293490000000000045e-05
-2.795257300000000313e-03
-3.842391300000000225e-03
-2.868946300000000359e-03
1.522893900000000080e-03
-1.285020000000000107e-05
2.694258600000000361e-03
-1.283810000000000165e-05
3.165251100000000036e-03
-1.286230000000000050e-05
4.807910800000000581e-03
-1.278970000000000055e-05
4.434226500000000050e-03
1.875512100000000220e-03
1.223068000000000061e-04
-1.822514100000000156e-03
-1.280180000000000167e-05
-3.265100300000000049e-03
-1.283810000000000165e-05
-3.775272600000000294e-03
-2.600169000000000265e-03
-3.503421900000000359e-03
7.345062999999999983e-04
1.952964200000000027e-03
2.821586900000000366e-03
-1.286230000000000050e-05
3.660419400000000396e-03
4.967969600000000235e-03
4.070524700000000516e-03
3.989708800000000069e-03
-1.289860000000000048e-05
-1.614624000000000213e-04
-1.283810000000000165e-05
-2.010039900000000230e-03
-1.277760000000000113e-05
-3.640781100000000086e-03
-2.561279600000000278e-03
-3.589549700000000277e-03
-9.763006000000000288e-04
9.805114000000000191e-04
2.564219900000000267e-03
2.813939700000000349e-03
4.158540100000000100e-03
5.072332100000000177e-03
-1.277760000000000113e-05
3.556807100000000405e-03
4.441958400000000327e-03
4.514389000000000054e-04
-1.281390000000000110e-05
-1.981665400000000212e-03
-2.328814400000000367e-03
-4.067306100000000167e-03
-6.195200000000000418e-06
-3.241021300000000282e-03
5.262290000000000061e-05
3.002832800000000257e-03
4.842093300000000107e-03
4.687394800000000382e-03
3.485671200000000150e-03
-1.287440000000000162e-05
1.971973300000000231e-03
-1.618871100000000059e-03
-1.635750600000000039e-03
-1.288650000000000105e-05
0.000000000000000000e+00
-3.128334000000000410e-03
-1.278970000000000055e-05
-4.030195400000000441e-03
-1.272920000000000003e-05
-3.537023600000000455e-03
-2.291982000000000134e-03
5.944004000000000561e-04
2.009580099999999994e-03
-1.287440000000000162e-05
2.780023400000000092e-03
3.386523800000000063e-03
5.230805800000000103e-03
3.982884400000000040e-03
4.146343299999999919e-03
1.088407100000000037e-03
-1.815120999999999998e-04
-1.285020000000000107e-05
-1.922363300000000169e-03
-1.697884100000000016e-03
-2.503780400000000291e-03
-1.281390000000000110e-05
-3.630096800000000030e-03
-1.219994600000000057e-03
9.869849000000000851e-04
2.596563200000000151e-03
4.368112099999999984e-03
4.946661500000000371e-03
-1.277760000000000113e-05
3.541246500000000234e-03
3.245655600000000272e-03
-1.288650000000000105e-05
5.591894000000000031e-04
-1.694471900000000218e-03
-1.281390000000000110e-05
-2.476870000000000373e-03
-2.895880900000000289e-03
-1.281390000000000110e-05
-2.999239100000000366e-03
-2.019248000000000017e-04
-3.171942400000000214e-03
2.919016100000000006e-03
4.829872300000000347e-03
4.503353800000000143e-03
3.689870800000000315e-03
4.489136300000000010e-03
2.114838000000000232e-04
-3.182130600000000233e-03
-3.738379700000000246e-03
-1.282600000000000053e-05
-3.408763600000000189e-03
-2.432221000000000036e-03
-1.276550000000000170e-05
5.609439000000000352e-04
-1.275340000000000058e-05
0.000000000000000000e+00
1.820348200000000130e-03
-1.278970000000000055e-05
2.769254400000000210e-03
4.198119200000000224e-03
3.936541400000000135e-03
-1.281390000000000110e-05
4.153675900000000643e-03
-7.373740000000000318e-05
-1.749466400000000222e-03
-1.940755300000000056e-03
-3.475531400000000156e-03
-1.278970000000000055e-05
-2.512637600000000061e-03
-3.560388700000000073e-03
-1.287440000000000162e-05
-1.379109600000000095e-03
9.282273000000001040e-04
2.847759200000000122e-03
3.927914099999999832e-03
5.071848099999999929e-03
-1.287440000000000162e-05
4.299251000000000461e-03
3.436835600000000268e-03
-5.311537000000000506e-04
-2.029811299999999957e-03
-2.118383300000000261e-03
-2.699219600000000302e-03
-3.435940200000000243e-03
-1.278970000000000055e-05
0.000000000000000000e+00
-2.531440999999999943e-04
-1.280180000000000167e-05
2.729687400000000309e-03
-1.288650000000000105e-05
0.000000000000000000e+00
4.601460600000000130e-03
-1.287440000000000162e-05
4.889113900000000359e-03
3.399749100000000121e-03
2.331778900000000369e-03
-1.374693099999999999e-03
-4.113140900000000245e-03
-2.474534700000000260e-03
-1.281390000000000110e-05
1.757246700000000090e-03
-1.287440000000000162e-05
2.895179100000000363e-03
3.080974600000000417e-03
5.202165100000000382e-03
-1.283810000000000165e-05
4.135961500000000235e-03
-1.287440000000000162e-05
3.779350300000000433e-03
-1.287440000000000162e-05
0.000000000000000000e+00
4.355467600000000224e-03
1.364928400000000198e-03
-1.026080000000000008e-05
-1.281390000000000110e-05
-1.571402800000000011e-03
-1.283810000000000165e-05
-3.678121700000000147e-03
-3.651852600000000341e-03
-2.384776900000000217e-03
-3.621747800000000087e-03
-1.620371500000000178e-03
8.548529000000001108e-04
2.428603100000000133e-03
4.078413900000000224e-03
5.016914100000000390e-03
-1.277760000000000113e-05
4.351232600000000221e-03
3.526254600000000138e-03
7.167556000000000057e-04
-6.583247000000000838e-04
-1.766200700000000127e-03
-2.245384900000000315e-03
-3.954800300000000171e-03
-2.866369000000000122e-03
-1.280180000000000167e-05
-3.397292800000000380e-03
-5.845752000000000066e-04
1.263772400000000165e-03
2.610345100000000060e-03
2.725658100000000195e-03
4.573654800000000187e-03
-1.282600000000000053e-05
3.628898900000000066e-03
-1.277760000000000113e-05
2.514488900000000360e-03
-1.278970000000000055e-05
1.815000000000000040e-07
-1.743985100000000014e-03
-3.781334700000000149e-03
-2.787307600000000357e-03
-3.278156200000000020e-03
-2.759090400000000203e-03
3.338511000000000061e-04
4.776789600000000240e-03
-1.283810000000000165e-05
4.322579800000000277e-03
-1.285020000000000107e-05
3.768617600000000352e-03
4.287816500000000454e-03
-1.283810000000000165e-05
1.477518900000000020e-03
-1.278970000000000055e-05
3.470280000000000256e-05
-1.892984500000000070e-03
-3.309773500000000399e-03
-3.772852600000000355e-03
-1.280180000000000167e-05
-3.534301100000000143e-03
-1.285020000000000107e-05
-1.753290000000000013e-03
8.581078000000000447e-04
2.118589000000000149e-03
2.880538100000000230e-03
3.721935800000000273e-03
3.895377200000000283e-03
-1.283810000000000165e-05
3.768157800000000116e-03
7.329696000000000778e-04
-3.093486000000000217e-04
-2.002925100000000052e-03
-1.960768700000000125e-03
-3.797536600000000432e-03
-3.357653200000000442e-03
-2.546469200000000058e-03
-5.953441999999999979e-04
-4.956160000000000334e-05
-8.266877300000000095e-02
2.705838300000000009e-03
4.373351400000000284e-03
-1.278970000000000055e-05
3.417015800000000082e-03
-1.271710000000000060e-05
4.555226500000000497e-03
2.721011699999999981e-03
4.152720000000000044e-04
-1.108601999999999982e-03
-1.812144400000000044e-03
-2.503054400000000353e-03
-2.620714800000000389e-03
-3.115096600000000129e-03
-2.970562100000000410e-03
2.795825999999999954e-04
1.519626900000000140e-03
2.976866200000000389e-03
2.865981800000000357e-03
4.420045300000000586e-03
3.582713200000000025e-03
-1.285020000000000107e-05
0.000000000000000000e+00
-1.771851400000000205e-03
-1.523789300000000105e-03
-1.285020000000000107e-05
-3.435456200000000428e-03
-1.283810000000000165e-05
-3.829008700000000303e-03
-1.283810000000000165e-05
-2.306502000000000205e-03
-3.592647300000000130e-03
7.421293000000000030e-04
-1.288650000000000105e-05
2.239903600000000324e-03
3.710477100000000254e-03
5.165405300000000186e-03
-1.278970000000000055e-05
3.709642200000000042e-03
4.186164400000000167e-03
3.867789200000000451e-03
8.782906000000000914e-04
-1.821703400000000174e-03
-1.904189100000000176e-03
1.512500000000000130e-06
-2.664553100000000094e-03
-8.744065000000000518e-04
1.127841000000000087e-03
2.658841900000000202e-03
2.559730800000000351e-03
-1.283810000000000165e-05
4.576812900000000288e-03
4.739231200000000067e-03
3.545166900000000076e-03
4.495803400000000609e-03
2.900430500000000019e-03
4.328654000000000247e-04
-1.057019699999999993e-03
-1.638134300000000177e-03
-2.762805100000000156e-03
-3.857492100000000160e-03
-1.281390000000000110e-05
-3.152219400000000078e-03
-3.010867200000000039e-03
6.652580000000000602e-05
1.556544000000000200e-03
2.647842999999999985e-03
3.069842600000000348e-03
4.855161300000000735e-03
4.324612600000000452e-03
3.711529800000000143e-03
4.395857400000000546e-03
1.836646900000000028e-03
7.845640000000001001e-05
-1.482334700000000104e-03
-1.747469900000000066e-03
-1.281390000000000110e-05
-3.662621600000000224e-03
-1.275340000000000058e-05
-3.468912700000000449e-03
-2.111679900000000294e-03
-1.283810000000000165e-05
7.388018000000000319e-04
1.980007700000000013e-03
3.718172700000000296e-03
-1.281390000000000110e-05
4.855826799999999992e-03
4.044981600000000649e-03
3.930721300000000404e-03
-1.283810000000000165e-05
-2.354781000000000181e-04
-1.815871200000000220e-03
-2.053200600000000021e-03
-3.596567700000000405e-03
-3.444857900000000261e-03
-2.595292700000000150e-03
-3.492120500000000204e-03
-9.948983000000000219e-04
1.044217900000000152e-03
2.491414200000000023e-03
2.820425300000000204e-03
4.930907300000000534e-03
3.611232900000000117e-03
3.090678800000000188e-03
4.734851000000000316e-04
-7.394189000000000230e-04
-1.277760000000000113e-05
-1.890298300000000211e-03
-1.275340000000000058e-05
-2.336764100000000323e-03
-3.852555300000000231e-03
-1.277760000000000113e-05
-2.905936000000000023e-03
-2.870337799999999988e-03
9.287960000000000432e-05
-1.548800000000000104e-06
2.909892700000000099e-03
4.714087400000000622e-03
4.692706700000000286e-03
3.498473000000000208e-03
4.532889899999999889e-03
1.977987000000000061e-03
2.906903999999999977e-04
-1.729779700000000104e-03
-1.277760000000000113e-05
-2.945406200000000307e-03
-3.993713900000000171e-03
-1.269290000000000006e-05
-3.418322600000000318e-03
-2.273311700000000320e-03
-1.282600000000000053e-05
1.908218400000000073e-03
2.907194400000000234e-03
3.302985400000000172e-03
5.139245100000000219e-03
-1.281390000000000110e-05
3.974003000000000257e-03
3.890585600000000428e-03
1.055410400000000035e-03
-1.287440000000000162e-05
-5.981030000000000569e-05
-1.965064199999999942e-03
-3.682828600000000174e-03
-1.277760000000000113e-05
-2.338954200000000361e-03
-3.608365200000000165e-03
-1.125868700000000160e-03
9.589855000000000428e-04
-1.288650000000000105e-05
2.595220100000000113e-03
4.142434999999999867e-03
5.066826600000000173e-03
3.187841800000000125e-03
5.015934000000000755e-04
-8.475324000000000442e-04
-1.277760000000000113e-05
-1.901152000000000137e-03
-2.296531600000000298e-03
-1.278970000000000055e-05
-4.148920600000000590e-03
-2.917382600000000253e-03
-1.283810000000000165e-05
-3.292301100000000116e-03
-2.080474000000000234e-04
-1.277760000000000113e-05
1.322808300000000072e-03
2.860488400000000143e-03
2.679315100000000290e-03
4.564216800000000553e-03
3.481944400000000408e-03
4.551850600000000718e-03
2.155082600000000209e-03
2.498771000000000000e-04
-1.502553800000000061e-03
-1.522736599999999999e-03
-3.149315400000000324e-03
-2.400543200000000276e-03
-2.373572300000000111e-03
5.557046000000000598e-04
1.975010400000000270e-03
-1.278970000000000055e-05
2.674620300000000051e-03
-1.278970000000000055e-05
3.430301600000000388e-03
-1.281390000000000110e-05
3.923691200000000052e-03
3.930539800000000528e-03
4.130552800000000281e-03
1.236789399999999994e-03
-1.274130000000000115e-05
-1.016037000000000044e-04
-1.630208800000000017e-03
-1.661656700000000092e-03
-3.594547000000000454e-03
-3.251741900000000140e-03
-2.426521900000000367e-03
-1.288081300000000051e-03
-1.287440000000000162e-05
2.442614900000000377e-03
2.621755400000000055e-03
4.235096800000000099e-03
4.875852300000000500e-03
3.691976200000000093e-03
4.359702600000000226e-03
3.382361400000000098e-03
6.217705999999999927e-04
-6.754220000000000666e-04
-1.720486900000000111e-03
-3.772259700000000267e-03
-3.037934900000000254e-03
-1.287440000000000162e-05
-2.862618000000000367e-03
-1.285020000000000107e-05
-2.926264000000000144e-04
1.336916900000000149e-03
-1.286230000000000050e-05
2.650952700000000061e-03
4.572057600000000235e-03
-1.289860000000000048e-05
4.568197700000000208e-03
3.557508900000000331e-03
4.373351400000000284e-03
1.920996000000000064e-04
-1.256512400000000130e-03
-1.810547200000000093e-03
-2.929010700000000359e-03
-3.839063800000000470e-03
-2.656579200000000127e-03
-3.258021800000000107e-03
-2.549215900000000382e-03
5.449598000000000809e-04
-1.282600000000000053e-05
2.889383200000000210e-03
3.353200400000000327e-03
4.843581600000000653e-03
4.300267400000000115e-03
3.785896400000000103e-03
4.220322700000000114e-03
1.319674399999999984e-03
5.539380000000000486e-05
-1.790509600000000229e-03
-3.291780800000000066e-03
-1.281390000000000110e-05
0.000000000000000000e+00
-3.655797200000000195e-03
-2.312697200000000345e-03
-3.453787700000000068e-03
-1.498451900000000126e-03
8.981709000000000914e-04
2.821707899999999995e-03
3.737665800000000097e-03
5.085291200000000532e-03
3.697747900000000233e-03
4.185317400000000167e-03
-1.285020000000000107e-05
6.741273000000000534e-04
-3.501014000000000426e-04
-1.924311400000000083e-03
-3.801287600000000187e-03
-3.126373800000000272e-03
-2.506103600000000181e-03
-1.278970000000000055e-05
-3.380280200000000332e-03
-1.281390000000000110e-05
1.186078300000000018e-03
2.939985400000000131e-03
2.752846800000000038e-03
4.547615600000000716e-03
4.948500700000000446e-03
-1.280180000000000167e-05
3.382034700000000147e-03
2.534816900000000373e-03
3.969284000000000332e-04
-1.281390000000000110e-05
-1.686147100000000070e-03
-2.573996700000000075e-03
-3.968594300000000304e-03
-2.417325899999999989e-03
-3.100213600000000305e-03
-2.655478100000000213e-03
4.512816000000000331e-04
1.742315300000000025e-03
3.006946800000000197e-03
5.157128900000000279e-03
4.277918700000000150e-03
3.693028900000000416e-03
-1.281390000000000110e-05
0.000000000000000000e+00
4.375989200000000336e-03
2.600290000000000137e-05
-1.838328800000000023e-03
-1.283810000000000165e-05
-1.569854000000000084e-03
-3.513585900000000366e-03
-2.261417400000000077e-03
-1.287440000000000162e-05
-3.517784600000000133e-03
-1.640336500000000005e-03
2.364678800000000105e-03
2.584051800000000242e-03
3.873016400000000095e-03
3.594050900000000416e-03
-1.280180000000000167e-05
4.186878300000000316e-03
-1.283810000000000165e-05
7.700198000000000979e-04
-5.076192000000000204e-04
-1.283810000000000165e-05
-1.772262800000000199e-03
-3.015017500000000215e-03
-2.639288300000000153e-03
-3.347077800000000224e-03
-1.286230000000000050e-05
0.000000000000000000e+00
1.280458300000000046e-03
2.688680500000000320e-03
2.681226899999999969e-03
4.652450000000000682e-03
4.640325800000000105e-03
2.724774800000000392e-03
-1.286230000000000050e-05
0.000000000000000000e+00
4.007399000000000356e-04
-1.280180000000000167e-05
-1.088201400000000148e-03
-1.591137900000000154e-03
-2.785371600000000232e-03
-2.612692499999999963e-03
-2.711779400000000236e-03
3.287691000000000029e-04
-1.287440000000000162e-05
1.707116400000000195e-03
-1.285020000000000107e-05
3.302864400000000110e-03
4.382728900000000538e-03
4.358274799999999928e-03
1.758093700000000091e-03
-1.271710000000000060e-05
1.116346000000000103e-04
-1.499056900000000003e-03
-1.285020000000000107e-05
0.000000000000000000e+00
-1.766805700000000220e-03
-3.297879200000000156e-03
-3.464326800000000050e-03
-1.895731200000000177e-03
-1.278970000000000055e-05
0.000000000000000000e+00
2.018957600000000248e-03
-1.276550000000000170e-05
2.760893300000000043e-03
3.673898800000000367e-03
4.811855400000000435e-03
3.982606100000000114e-03
-1.282600000000000053e-05
7.802322000000000207e-04
-2.692371000000000044e-04
-1.862698200000000156e-03
-1.286230000000000050e-05
1.949310000000000214e-04
-3.092646260000000286e-02
-3.476572000000000256e-03
-8.161329000000001020e-04
9.795675999999999689e-04
2.550002400000000134e-03
2.710085400000000234e-03
4.055060899999999961e-03
4.871097000000000447e-03
3.331904400000000252e-03
4.266193799999999994e-03
-1.283810000000000165e-05
2.758086100000000339e-03
-2.011818600000000058e-03
-1.278970000000000055e-05
0.000000000000000000e+00
-2.382683600000000228e-03
-4.028586100000000267e-03
-2.809402199999999974e-03
-3.027105400000000123e-03
1.840289000000000161e-04
2.969993400000000335e-03
-1.281390000000000110e-05
2.737516100000000202e-03
4.420916500000000166e-03
1.631418800000000204e-03
8.053760000000000628e-05
-1.795410100000000139e-03
-1.281390000000000110e-05
-1.665819100000000058e-03
-3.238952200000000305e-03
-3.986841100000000117e-03
-1.283810000000000165e-05
-2.319037600000000126e-03
-3.515292000000000156e-03
-2.137755400000000000e-03
5.868984000000000050e-04
1.999525000000000260e-03
-1.280180000000000167e-05
0.000000000000000000e+00
2.622953300000000019e-03
3.319138900000000430e-03
3.610845700000000352e-03
-1.283810000000000165e-05
3.840346400000000261e-03
3.806889900000000240e-03
7.854836000000000023e-04
-4.301066000000000199e-04
-1.831770600000000131e-03
-3.938985600000000087e-03
-3.393529700000000402e-03
-2.495141000000000199e-03
-3.549535000000000363e-03
1.019170900000000105e-03
2.584342199999999957e-03
2.499787399999999979e-03
4.374404100000000607e-03
4.817748100000000637e-03
-1.272920000000000003e-05
3.483614200000000397e-03
4.407703300000000331e-03
3.039338500000000106e-03
2.153800000000000029e-06
-1.544710200000000205e-03
-2.433564100000000074e-03
-2.653058100000000273e-03
-2.852623400000000014e-03
-2.904629200000000220e-03
-1.283810000000000165e-05
-1.332210000000000074e-05
4.622115300000000093e-03
4.266205900000000217e-03
3.508274000000000028e-03
4.197526300000000571e-03
-1.277760000000000113e-05
1.900643800000000093e-03
4.075280000000000054e-05
-1.472243300000000135e-03
-1.788525200000000079e-03
-1.281390000000000110e-05
-3.688213100000000116e-03
-2.580107200000000389e-03
-1.276550000000000170e-05
-3.359419800000000046e-03
-1.282600000000000053e-05
-2.236503500000000099e-03
1.832835400000000026e-03
2.729518000000000222e-03
3.470473600000000165e-03
4.699990900000000117e-03
4.029396800000000466e-03
3.770432600000000415e-03
-1.285020000000000107e-05
3.885261600000000301e-03
9.749696000000001054e-04
-1.998194000000000066e-04
-1.866134600000000183e-03
-2.004740100000000115e-03
-3.519660100000000444e-03
-3.614403100000000441e-03
-3.546510000000000114e-03
-1.256476100000000111e-03
8.703893000000000523e-04
2.287964800000000243e-03
3.758973900000000395e-03
4.874315599999999929e-03
-1.281390000000000110e-05
3.434282500000000043e-03
4.097991700000000286e-03
3.078651400000000093e-03
3.884826000000000403e-04
-7.449002000000000141e-04
-1.285020000000000107e-05
-2.159027200000000063e-03
-2.996226200000000339e-03
-1.287440000000000162e-05
-2.673640200000000199e-03
-1.283810000000000165e-05
-3.240331600000000145e-03
-6.777210000000000796e-05
1.212492600000000115e-03
2.914212400000000362e-03
2.656349300000000226e-03
4.515066600000000076e-03
3.180521300000000058e-03
1.967472100000000092e-03
6.444460000000000975e-05
-1.697436400000000220e-03
-1.282600000000000053e-05
-1.918152500000000179e-03
-3.092082400000000040e-03
-4.251964200000000506e-03
-2.604307200000000218e-03
-1.286230000000000050e-05
-2.679218300000000240e-03
3.054886999999999945e-04
1.598579400000000065e-03
2.611470399999999987e-03
-2.537553920000000171e-02
4.909006300000000149e-03
3.580075400000000407e-03
1.171231599999999996e-03
-1.282600000000000053e-05
-8.477260000000000893e-05
-1.281390000000000110e-05
-1.788380000000000221e-03
-1.476853400000000113e-03
-3.523253800000000335e-03
-3.389125300000000313e-03
-3.429466700000000177e-03
-1.281390000000000110e-05
-1.285225700000000104e-03
2.449233600000000084e-03
-1.277760000000000113e-05
3.989866100000000367e-03
4.802659400000000058e-03
3.376541300000000367e-03
4.124539100000000451e-03
4.764133000000000148e-04
1.536700000000000042e-06
-1.832242500000000156e-03
-2.351840700000000246e-03
-3.928035100000000328e-03
-2.953561600000000151e-03
-2.830988600000000199e-03
-3.207516400000000236e-03
-1.283810000000000165e-05
1.339699900000000058e-03
2.613345900000000298e-03
2.769484300000000111e-03
-1.285020000000000107e-05
4.615593400000000436e-03
4.446520100000000281e-03
3.510754500000000215e-03
4.297266600000000311e-03
2.297874700000000336e-03
1.989482000000000208e-04
-2.999335900000000416e-03
-3.691516400000000291e-03
-2.636674700000000114e-03
-3.222314700000000233e-03
-2.534962100000000013e-03
-1.291070000000000160e-05
4.568960000000000382e-04
1.697872000000000010e-03
2.652912900000000199e-03
4.638014700000000004e-03
-1.286230000000000050e-05
4.107587000000000217e-03
-1.285020000000000107e-05
3.979218100000000112e-03
-1.283810000000000165e-05
-1.628055000000000051e-04
-1.282600000000000053e-05
-1.764797100000000058e-03
-1.964265599999999966e-03
-2.480524200000000078e-03
-1.281390000000000110e-05
-3.460273300000000357e-03
-1.590194100000000103e-03
8.701836000000000553e-04
2.160733300000000287e-03
3.708807300000000265e-03
4.796657800000000450e-03
3.607070500000000152e-03
-3.171942400000000214e-03
3.425945600000000323e-03
-4.781799000000000531e-04
-1.975978400000000332e-03
-2.063667099999999966e-03
-1.285020000000000107e-05
-3.737605300000000283e-03
-3.409465400000000115e-03
2.673930600000000348e-03
4.287005800000000255e-03
-1.285020000000000107e-05
4.793064100000000126e-03
3.249745400000000201e-03
2.386591900000000280e-03
2.731938000000000270e-04
-1.846653600000000171e-03
-1.287440000000000162e-05
0.000000000000000000e+00
2.445410000000000021e-05
-2.914223290000000216e-02
-2.772971520000000120e-02
-4.064172200000000512e-03
-2.530037400000000308e-03
4.036439000000000064e-04
1.553773100000000081e-03
-1.287440000000000162e-05
2.888862900000000161e-03
2.864759700000000381e-03
-1.281390000000000110e-05
4.922304200000000678e-03
-1.281390000000000110e-05
3.463588700000000322e-03
4.236427800000000347e-03
0.000000000000000000e+00
-1.905713700000000090e-03
-1.617697400000000108e-03
-1.283810000000000165e-05
-3.770190600000000291e-03
-2.302436400000000289e-03
-3.566523400000000399e-03
-1.282600000000000053e-05
1.694000000000000213e-07
2.503477900000000353e-03
-1.285020000000000107e-05
3.666493600000000040e-03
5.007040500000000532e-03
3.468150400000000275e-03
4.070911899999999847e-03
6.859248000000000298e-04
-1.285020000000000107e-05
-1.841378000000000069e-03
-1.274130000000000115e-05
-1.952528600000000237e-03
-3.055951800000000166e-03
-2.624719900000000057e-03
-3.372766100000000166e-03
-1.283810000000000165e-05
1.154255300000000184e-03
2.656409800000000040e-03
2.524822300000000019e-03
4.537064400000000511e-03
4.577575200000000462e-03
3.395332600000000242e-03
-1.282600000000000053e-05
2.584584200000000082e-03
3.176855000000000130e-04
-1.163281900000000041e-03
-1.280180000000000167e-05
-2.811919000000000397e-03
-1.283810000000000165e-05
-2.669550400000000271e-03
-2.775824700000000325e-03
-1.281390000000000110e-05
0.000000000000000000e+00
1.610013900000000072e-03
4.730966900000000384e-03
3.639813100000000457e-03
4.173907100000000606e-03
-1.341890000000000124e-05
-1.794248500000000194e-03
-3.290123100000000300e-03
-2.498129700000000213e-03
7.878310000000000131e-04
1.995265800000000245e-03
-1.282600000000000053e-05
2.707834800000000382e-03
-1.280180000000000167e-05
3.651150800000000415e-03
-1.283810000000000165e-05
4.737077400000000264e-03
-1.276550000000000170e-05
3.833086400000000442e-03
-1.271710000000000060e-05
0.000000000000000000e+00
3.923981600000000201e-03
-1.278970000000000055e-05
3.657479100000000406e-03
-1.278970000000000055e-05
7.471508000000000836e-04
-3.365131000000000155e-04
-1.275340000000000058e-05
-2.067998900000000018e-03
-3.587601600000000363e-03
-3.414837800000000267e-03
-2.531646700000000048e-03
-1.982464000000000134e-04
2.530630299999999961e-03
2.723637400000000243e-03
-1.283810000000000165e-05
4.078050900000000471e-03
3.373443700000000080e-03
4.258510300000000609e-03
-1.277760000000000113e-05
2.778704500000000067e-03
-1.276550000000000170e-05
-9.366126000000000659e-04
-1.951391200000000088e-03
-2.334065800000000024e-03
-2.763107600000000094e-03
-2.863029400000000144e-03
-1.278970000000000055e-05
-3.032368900000000003e-03
-1.281390000000000110e-05
2.016102000000000031e-04
2.954202900000000263e-03
4.728692100000000086e-03
4.459672799999999868e-03
-1.278970000000000055e-05
0.000000000000000000e+00
3.337906000000000293e-03
4.381410000000000513e-03
1.723862800000000106e-03
-1.694556600000000045e-03
-1.598482600000000016e-03
-1.283810000000000165e-05
-3.912607600000000442e-03
-2.221910899999999991e-03
-2.056298200000000308e-03
6.674601999999999966e-04
-1.278970000000000055e-05
2.044282900000000004e-03
-1.283810000000000165e-05
3.363582200000000012e-03
5.058332400000000589e-03
3.687329800000000313e-03
3.869410600000000415e-03
3.883289300000000374e-03
-1.278970000000000055e-05
-3.014110000000000183e-04
-1.897304200000000116e-03
-1.716155100000000058e-03
-3.251112700000000251e-03
-2.444369400000000192e-03
-3.453787700000000068e-03
-1.006804700000000054e-03
-1.278970000000000055e-05
1.051816700000000144e-03
2.565998600000000095e-03
2.471219300000000296e-03
-1.272920000000000003e-05
4.319506400000000003e-03
3.407045400000000175e-03
4.328980700000000306e-03
-1.280180000000000167e-05
4.494303000000000057e-04
-1.637868100000000040e-03
-1.285020000000000107e-05
-2.541556600000000141e-03
-3.793241100000000181e-03
-2.757783600000000401e-03
1.464886500000000050e-03
2.616128899999999990e-03
4.677291300000000623e-03
3.559045600000000035e-03
4.279455400000000721e-03
-1.289860000000000048e-05
1.930458200000000199e-03
-1.281390000000000110e-05
1.291191000000000018e-04
-1.286230000000000050e-05
0.000000000000000000e+00
-1.405064100000000173e-03
-1.729235200000000042e-03
-1.282600000000000053e-05
0.000000000000000000e+00
-3.116463900000000179e-03
-3.607639200000000226e-03
-3.292313200000000339e-03
6.570663000000000892e-04
1.835219100000000164e-03
-1.283810000000000165e-05
0.000000000000000000e+00
3.464157400000000397e-03
-1.276550000000000170e-05
3.974039300000000059e-03
3.839850300000000223e-03
9.932043000000000208e-04
-1.477652000000000197e-04
-1.801496400000000223e-03
-1.283810000000000165e-05
0.000000000000000000e+00
-3.399870100000000183e-03
-3.519998900000000184e-03
-1.278970000000000055e-05
-2.408505000000000021e-03
-3.426986200000000423e-03
9.605343000000000778e-04
2.383954100000000229e-03
-1.286230000000000050e-05
2.761631400000000205e-03
3.886314300000000190e-03
4.882979200000000033e-03
3.502090900000000111e-03
4.167106900000000155e-03
4.500474000000000510e-04
-6.553602000000000819e-04
-1.998932100000000173e-03
-2.118431700000000285e-03
-3.847679000000000116e-03
-1.275340000000000058e-05
-2.663101100000000217e-03
-3.217014900000000118e-03
1.207822000000000106e-03
-1.281390000000000110e-05
2.679230400000000029e-03
4.540416100000000711e-03
-1.278970000000000055e-05
4.650441400000000086e-03
3.267592900000000026e-03
2.532772000000000083e-04
-1.460530500000000202e-03
-1.281390000000000110e-05
-1.668904600000000122e-03
-1.280180000000000167e-05
0.000000000000000000e+00
-2.823716500000000157e-03
-3.971837100000000231e-03
-2.416841900000000175e-03
5.709989999999999857e-04
1.821582400000000112e-03
2.799468100000000303e-03
3.120686800000000392e-03
5.023302900000000196e-03
-1.283810000000000165e-05
3.919383600000000446e-03
3.699224100000000123e-03
-9.569890000000001306e-05
-1.888894700000000142e-03
-1.573786500000000149e-03
-1.272920000000000003e-05
-3.636001600000000455e-03
-1.277760000000000113e-05
-3.464290500000000248e-03
-1.286230000000000050e-05
-3.476584100000000045e-03
-1.280180000000000167e-05
-1.359761700000000151e-03
9.357777000000000716e-04
2.475672099999999976e-03
-1.281390000000000110e-05
4.043178700000000375e-03
4.881853900000000107e-03
4.243506299999999856e-03
3.286589900000000224e-03
-1.281390000000000110e-05
-7.302471000000000916e-04
-2.218547100000000001e-03
-3.858520600000000470e-03
-2.857850600000000092e-03
-1.283810000000000165e-05
-2.753004100000000336e-03
-3.181707100000000232e-03
-3.322176000000000361e-04
2.712118199999999976e-03
4.404859799999999957e-03
3.490983100000000054e-03
2.287396100000000168e-03
2.388056000000000163e-04
-1.280180000000000167e-05
0.000000000000000000e+00
-1.282370100000000158e-03
-1.278970000000000055e-05
0.000000000000000000e+00
-1.601955300000000061e-03
-1.274130000000000115e-05
-2.986558300000000370e-03
-3.629443400000000128e-03
-3.176806600000000105e-03
-1.278970000000000055e-05
4.715854000000000335e-04
1.757295100000000115e-03
3.334167100000000328e-03
-1.278970000000000055e-05
4.086182100000000303e-03
-1.280180000000000167e-05
3.758417300000000110e-03
-1.281390000000000110e-05
4.077373300000000124e-03
-6.069360000000000450e-05
-1.641110900000000185e-03
-3.335715900000000254e-03
-3.505079600000000125e-03
-2.435379100000000137e-03
-1.519227600000000152e-03
2.204486900000000166e-03
-1.278970000000000055e-05
0.000000000000000000e+00
0.000000000000000000e+00
2.748744900000000321e-03
-1.274130000000000115e-05
4.811516600000000261e-03
-1.282600000000000053e-05
3.679622100000000048e-03
4.120933299999999903e-03
5.789366000000000434e-04
-1.907540800000000160e-03
-2.124505899999999930e-03
-1.281390000000000110e-05
0.000000000000000000e+00
-2.573561100000000285e-03
1.142324700000000139e-03
-1.276550000000000170e-05
4.295633100000000558e-03
3.344839300000000161e-03
4.364203799999999932e-03
3.166449000000000217e-04
-1.149379000000000069e-03
-1.286230000000000050e-05
-1.833283100000000039e-03
-1.278970000000000055e-05
-2.540576500000000289e-03
-1.280180000000000167e-05
0.000000000000000000e+00
0.000000000000000000e+00
0.000000000000000000e+00
-3.931302099999999834e-03
-3.050155900000000014e-03
1.540257400000000091e-03
2.956102600000000153e-03
2.935980300000000029e-03
-1.281390000000000110e-05
4.868434999999999950e-03
4.255001300000000111e-03
-1.275340000000000058e-05
3.498811800000000381e-03
4.285590100000000180e-03
-1.283810000000000165e-05
1.401736600000000202e-03
9.823990000000000110e-05
-1.815992200000000065e-03
-3.310305900000000238e-03
-3.732898400000000255e-03
-1.285020000000000107e-05
0.000000000000000000e+00
-3.489845700000000338e-03
-1.650488400000000005e-03
-1.281390000000000110e-05
2.264103600000000154e-03
2.669247900000000333e-03
3.647363500000000425e-03
-1.292280000000000102e-05
5.063656400000000717e-03
4.048163900000000329e-03
-1.281390000000000110e-05
7.055026000000000916e-04
-4.508944000000000515e-04
-1.890237800000000180e-03
-3.873161600000000170e-03
-3.069007700000000137e-03
1.815000000000000040e-07
1.146160400000000154e-03
4.495827600000000188e-03
4.700583800000000638e-03
2.641672000000000291e-03
3.497989000000000502e-04
-1.169670700000000063e-03
-1.587386900000000182e-03
-2.671171800000000235e-03
-3.870669000000000193e-03
-2.505099300000000317e-03
-3.072819200000000139e-03
-1.277760000000000113e-05
-2.761050600000000341e-03
2.491268999999999949e-04
-1.283810000000000165e-05
1.666726600000000089e-03
-1.281390000000000110e-05
2.704761400000000107e-03
-1.283810000000000165e-05
0.000000000000000000e+00
-5.697890000000000431e-05
-5.411120000000000464e-05
4.165049900000000402e-03
-1.277760000000000113e-05
3.619400400000000184e-03
4.251601199999999886e-03
1.627038600000000126e-03
-1.597417800000000120e-03
-1.280180000000000167e-05
-3.378707200000000393e-03
-3.493645100000000118e-03
-2.403011600000000240e-03
-3.355717200000000316e-03
-1.849533400000000129e-03
8.178269000000001031e-04
3.773735900000000157e-03
3.747781400000000079e-03
4.036330099999999900e-03
3.697409100000000060e-03
-1.287440000000000162e-05
0.000000000000000000e+00
8.368844000000000066e-04
-1.285020000000000107e-05
0.000000000000000000e+00
-1.702070700000000211e-03
-1.281390000000000110e-05
-3.607457700000000350e-03
-7.886538000000000012e-04
-1.283810000000000165e-05
2.497827200000000275e-03
4.291119800000000629e-03
4.671979400000000719e-03
3.583536000000000447e-04
-1.285020000000000107e-05
-9.045113000000000892e-04
-1.760356400000000167e-03
-2.550571100000000209e-03
-3.680045600000000049e-03
-2.898688099999999993e-03
-2.899777100000000118e-03
2.150049000000000122e-04
1.435011600000000130e-03
-1.281390000000000110e-05
2.759187200000000253e-03
3.047542300000000409e-03
4.423457500000000167e-03
3.547671600000000276e-03
1.781277300000000050e-03
-1.286230000000000050e-05
1.519881000000000162e-04
-1.795506900000000189e-03
-1.281390000000000110e-05
-2.976345900000000339e-03
-1.281390000000000110e-05
-3.734979600000000455e-03
-3.293898300000000067e-03
-2.026060300000000203e-03
7.915941000000000990e-04
1.900510700000000025e-03
2.865643000000000183e-03
-1.278970000000000055e-05
3.405871700000000224e-03
-1.285020000000000107e-05
4.899374700000000415e-03
3.883119900000000287e-03
-1.271710000000000060e-05
8.617983000000000934e-04
-1.276550000000000170e-05
-1.454662000000000067e-04
-1.926731400000000023e-03
-1.277760000000000113e-05
-1.799366800000000216e-03
-3.532740200000000427e-03
-1.286230000000000050e-05
-3.426308600000000076e-03
-2.314391200000000346e-03
-3.449673700000000127e-03
-8.687316000000000699e-04
9.895864000000001177e-04
2.577650900000000214e-03
2.687083300000000369e-03
-1.289860000000000048e-05
4.037382800000000223e-03
4.954381300000000425e-03
-1.276550000000000170e-05
3.353139900000000079e-03
4.309076200000000294e-03
4.385403000000000066e-04
-1.875354800000000139e-03
-3.922565900000000126e-03
-2.738000100000000017e-03
-2.768262200000000135e-03
-3.039290100000000081e-03
2.922367800000000206e-03
-1.283810000000000165e-05
2.692867100000000298e-03
-1.278970000000000055e-05
4.757429600000000723e-03
3.357229700000000441e-03
-1.291070000000000160e-05
4.427789300000000219e-03
1.883292400000000089e-03
2.392533000000000290e-04
-1.548872600000000170e-03
-1.522107400000000110e-03
-3.016735700000000228e-03
-1.288650000000000105e-05
6.074200000000000221e-06
-2.222612700000000351e-03
-3.312024100000000252e-03
-1.287440000000000162e-05
0.000000000000000000e+00
-2.158240700000000310e-03
3.323978900000000309e-03
5.047321400000000582e-03
3.769222600000000228e-03
-1.277760000000000113e-05
3.968207100000000105e-03
-1.798616600000000048e-03
-1.645309600000000169e-03
-1.278970000000000055e-05
-3.665114200000000200e-03
-3.260332900000000207e-03
-1.122843700000000127e-03
1.026297800000000073e-03
2.533606900000000186e-03
-1.281390000000000110e-05
2.486937200000000330e-03
-1.278970000000000055e-05
4.195384600000000123e-03
-1.278970000000000055e-05
0.000000000000000000e+00
4.782258800000000441e-03
-1.283810000000000165e-05
3.112313600000000003e-03
-1.276550000000000170e-05
-7.985516000000000879e-04
-1.281390000000000110e-05
-1.632096400000000117e-03
-1.320957000000000099e-04
2.808107500000000395e-03
4.656346200000000511e-03
-1.271710000000000060e-05
3.535244900000000193e-03
4.279007700000000275e-03
2.188890000000000247e-04
-1.596074700000000082e-03
-2.991337800000000002e-03
-3.569814600000000351e-03
-2.461212600000000153e-03
-3.164839700000000259e-03
-1.275340000000000058e-05
-2.299992200000000337e-03
6.137967000000000249e-04
-1.282600000000000053e-05
0.000000000000000000e+00
1.855063100000000145e-03
2.660100299999999980e-03
-1.283810000000000165e-05
0.000000000000000000e+00
0.000000000000000000e+00
0.000000000000000000e+00
3.433181400000000130e-03
-1.285020000000000107e-05
0.000000000000000000e+00
0.000000000000000000e+00
0.000000000000000000e+00
-5.075107840000000342e-02
3.955477900000000518e-03
1.205438300000000185e-03
-1.056814000000000077e-04
-1.285020000000000107e-05
-1.634794700000000199e-03
-1.851590400000000100e-03
-1.277760000000000113e-05
-3.313657600000000439e-03
-2.376149600000000348e-03
-3.323446500000000036e-03
-1.266301300000000161e-03
9.937004000000000583e-04
2.292599100000000233e-03
2.764378100000000095e-03
4.771380900000000286e-03
3.279705000000000380e-03
5.580036000000000457e-04
-1.283810000000000165e-05
-5.015450000000000507e-04
-1.858305900000000073e-03
-1.285020000000000107e-05
0.000000000000000000e+00
-2.122049600000000188e-03
-3.586936100000000238e-03
-2.546626500000000355e-03
-3.156369700000000254e-03
-1.288650000000000105e-05
0.000000000000000000e+00
1.179592700000000162e-03
4.334474100000000087e-03
3.328226000000000101e-03
-1.278970000000000055e-05
0.000000000000000000e+00
0.000000000000000000e+00
4.336712600000000584e-03
-1.282600000000000053e-05
2.275453400000000334e-03
-1.206164300000000123e-03
-1.760404800000000191e-03
-2.555084400000000137e-03
-3.849106800000000415e-03
-1.280180000000000167e-05
-2.412643199999999974e-03
-2.471691200000000321e-03
5.403496999999999944e-04
1.653852200000000211e-03
2.940130600000000205e-03
2.984138299999999997e-03
4.900959800000000144e-03
-1.282600000000000053e-05
3.558960900000000208e-03
4.188862700000000466e-03
1.278135100000000156e-03
-1.278970000000000055e-05
-1.825539100000000189e-03
-3.604541600000000373e-03
-2.113906300000000134e-03
-1.282600000000000053e-05
0.000000000000000000e+00
1.536700000000000042e-06
-1.813656900000000169e-03
2.399381600000000114e-03
2.606606200000000095e-03
-1.285020000000000107e-05
3.749838400000000266e-03
5.035209300000000228e-03
3.461882600000000098e-03
3.500711500000000271e-03
6.859006000000000174e-04
-1.803698600000000051e-03
-1.867780200000000159e-03
-2.908174500000000086e-03
1.243771100000000103e-03
2.781802100000000354e-03
2.528295000000000282e-03
-1.285020000000000107e-05
4.593946500000000398e-03
-1.285020000000000107e-05
0.000000000000000000e+00
0.000000000000000000e+00
4.595809900000000052e-03
-1.283810000000000165e-05
0.000000000000000000e+00
2.463414799999999981e-03
-1.205849700000000179e-03
-1.497108800000000088e-03
-1.277760000000000113e-05
0.000000000000000000e+00
-3.704826400000000176e-03
-1.278970000000000055e-05
0.000000000000000000e+00
-2.434846700000000298e-03
-3.053108300000000226e-03
3.785606000000000496e-04
1.770387300000000105e-03
2.672623800000000112e-03
3.171518900000000214e-03
4.837543700000000377e-03
4.094506900000000234e-03
-1.287440000000000162e-05
3.716527100000000319e-03
4.150336300000000665e-03
2.294160000000000071e-05
-1.528786600000000065e-03
-1.287440000000000162e-05
-3.403064500000000086e-03
-1.275340000000000058e-05
-3.306312900000000360e-03
-1.637662400000000152e-03
2.161289900000000139e-03
2.660898900000000390e-03
3.844569300000000474e-03
4.717487499999999979e-03
3.762942700000000262e-03
-1.285020000000000107e-05
0.000000000000000000e+00
4.065345900000000463e-03
-1.282600000000000053e-05
3.545312100000000150e-03
7.626388000000000004e-04
-2.060726799999999977e-03
-1.285020000000000107e-05
-3.502671700000000408e-03
-3.133440200000000425e-03
-2.519111100000000127e-03
-1.283810000000000165e-05
-5.501386000000000253e-04
-1.285020000000000107e-05
2.585116600000000354e-03
2.837437900000000252e-03
4.733290100000000708e-03
-1.285020000000000107e-05
4.313686300000000272e-03
2.645556100000000330e-03
-1.287440000000000162e-05
3.595273000000000501e-04
-9.173857000000000756e-04
-1.283810000000000165e-05
-3.752004300000000292e-03
-2.642894100000000267e-03
-2.900370000000000205e-03
-1.272920000000000003e-05
0.000000000000000000e+00
-2.761691900000000019e-03
3.785122000000000248e-04
4.706839500000000592e-03
-1.285020000000000107e-05
4.410135400000000060e-03
4.332804300000000532e-03
-1.275340000000000058e-05
-1.641945800000000179e-03
-1.632665100000000192e-03
-3.023862600000000195e-03
-3.785170400000000164e-03
-2.183892700000000017e-03
-1.282600000000000053e-05
-3.359068900000000083e-03
-1.278970000000000055e-05
-1.802053000000000075e-03
-1.281390000000000110e-05
7.967971000000000558e-04
2.112551100000000306e-03
2.805167200000000405e-03
3.448463700000000375e-03
3.973022900000000406e-03
3.812177600000000131e-03
8.332302000000000848e-04
-1.281390000000000110e-05
-2.480620999999999911e-04
-1.285020000000000107e-05
-1.896070000000000134e-03
-1.692862600000000044e-03
-3.739045200000000371e-03
-3.197400800000000255e-03
-2.351828600000000023e-03
-3.400632400000000357e-03
-7.501879000000000143e-04
1.106460299999999968e-03
2.721120600000000254e-03
2.513762899999999988e-03
3.324208800000000210e-03
4.439671500000000673e-03
-1.280180000000000167e-05
2.867445900000000023e-03
4.369915000000000257e-04
-1.277760000000000113e-05
-9.971852000000001100e-04
-1.594041900000000124e-03
-2.467238400000000206e-03
-2.570148900000000271e-03
-2.945902300000000345e-03
-1.285020000000000107e-05
-2.882413600000000107e-03
-1.285020000000000107e-05
1.532222999999999983e-04
1.577573800000000139e-03
2.943252400000000071e-03
4.894462100000000065e-03
4.241340400000000697e-03
3.662621600000000224e-03
4.315295600000000446e-03
1.336687000000000031e-04
-1.574536700000000100e-03
-1.278970000000000055e-05
-3.236399100000000081e-03
-3.511093300000000389e-03
-2.428421600000000256e-03
-1.287440000000000162e-05
-3.301751200000000407e-03
-2.016852200000000036e-03
7.558628000000001046e-04
2.061549599999999965e-03
2.653965600000000088e-03
3.716321400000000431e-03
4.806168400000000555e-03
3.920581499999999976e-03
4.011888100000000380e-03
-1.278970000000000055e-05
3.855834400000000394e-03
9.740379000000000615e-04
-2.353934000000000289e-04
-1.970073600000000341e-03
-3.470594600000000227e-03
-3.303796100000000371e-03
-3.346896300000000348e-03
-9.367215000000000133e-04
1.118112600000000087e-03
2.463523700000000254e-03
2.824357800000000269e-03
4.148835899999999896e-03
4.818135299999999968e-03
-1.281390000000000110e-05
4.303957900000000489e-03
3.042278800000000095e-03
4.491641000000000318e-04
-7.046677000000000973e-04
-1.851336300000000186e-03
-2.307228000000000143e-03
-2.871293700000000261e-03
-2.767391000000000122e-03
-1.285020000000000107e-05
-3.047663300000000037e-03
-1.275340000000000058e-05
0.000000000000000000e+00
1.290223000000000064e-04
1.326873899999999988e-03
2.898010500000000080e-03
4.595737300000000448e-03
4.653151800000000608e-03
3.436121700000000119e-03
-1.283810000000000165e-05
4.436077800000000348e-03
1.969311300000000167e-03
-2.842156900000000069e-03
-2.272997100000000159e-03
6.944190000000000475e-04
1.907988500000000172e-03
2.931503300000000336e-03
3.255795400000000266e-03
5.079979300000000628e-03
-1.291070000000000160e-05
3.988982800000000564e-03
4.110781400000000120e-03
1.040805700000000137e-03
-1.278970000000000055e-05
-4.366890000000000469e-05
-1.912719600000000212e-03
-3.617585400000000121e-03
-1.277760000000000113e-05
-3.412611400000000426e-03
-2.252100400000000072e-03
-1.287440000000000162e-05
-3.469747600000000227e-03
-1.285020000000000107e-05
1.007058799999999968e-03
3.196360200000000155e-03
-2.693956099999999989e-03
-9.424690000000000053e-05
2.838829400000000315e-03
4.844174500000000307e-03
-1.281390000000000110e-05
4.493468100000000062e-03
4.449823400000000456e-03
-1.283810000000000165e-05
2.177540200000000013e-03
2.925296000000000190e-04
-1.286230000000000050e-05
-1.409250700000000151e-03
-1.281390000000000110e-05
-1.455944600000000019e-03
-3.087097200000000086e-03
-3.641386100000000396e-03
-2.370039100000000034e-03
-3.269541000000000374e-03
-2.308909900000000355e-03
-1.282600000000000053e-05
5.872493000000000764e-04
-1.280180000000000167e-05
0.000000000000000000e+00
1.964689099999999966e-03
-1.280180000000000167e-05
2.652114300000000223e-03
-1.281390000000000110e-05
0.000000000000000000e+00
3.468041500000000436e-03
-1.281390000000000110e-05
4.918843600000000205e-03
3.987784900000000167e-03
4.054867299999999862e-03
1.279272500000000088e-03
-1.139457000000000024e-04
-1.630765400000000085e-03
-1.289860000000000048e-05
-1.744614300000000119e-03
-1.277760000000000113e-05
-3.532788600000000452e-03
-2.433636700000000111e-03
-1.280180000000000167e-05
-3.371652900000000029e-03
-1.286230000000000050e-05
0.000000000000000000e+00
-1.284705400000000055e-03
-1.281390000000000110e-05
0.000000000000000000e+00
1.029213900000000050e-03
-1.282600000000000053e-05
0.000000000000000000e+00
2.474982400000000273e-03
9.531933510000001331e-02
-1.309666490000000079e-02
0.000000000000000000e+00
4.157148600000000471e-03
4.761846100000000602e-03
3.698256100000000060e-03
3.336139400000000255e-03
-1.711399800000000223e-03
-3.602460400000000174e-03
-3.125369500000000408e-03
-2.495746000000000075e-04
2.925041900000000059e-03
4.487490700000000034e-03
3.538439300000000096e-03
-1.293490000000000045e-05
4.400310200000000227e-03
2.327519700000000354e-03
-1.761626900000000167e-03
-3.074779400000000277e-03
1.649036400000000128e-03
4.249858799999999860e-03
1.298983400000000002e-03
1.243154000000000058e-04
-1.685735700000000076e-03
-3.659003700000000320e-03
-2.214808200000000036e-03
-3.426526400000000187e-03
-1.277760000000000113e-05
-1.444727900000000124e-03
-1.278970000000000055e-05
9.124852000000000570e-04
-1.278970000000000055e-05
2.325426400000000365e-03
-1.278970000000000055e-05
2.822639600000000255e-03
-1.281390000000000110e-05
3.721996300000000087e-03
5.105933800000000272e-03
-1.287440000000000162e-05
3.609599400000000364e-03
4.158019800000000050e-03
-1.286230000000000050e-05
3.551652500000000365e-03
-1.285020000000000107e-05
6.372828000000000303e-04
-3.998566000000000164e-04
-1.953653899999999947e-03
-1.844112600000000169e-03
-1.281390000000000110e-05
-3.835627400000000443e-03
-1.277760000000000113e-05
-3.048558700000000062e-03
-1.287440000000000162e-05
-2.484045300000000366e-03
-1.286230000000000050e-05
0.000000000000000000e+00
-3.320373100000000195e-03
-1.281390000000000110e-05
-3.559578000000000091e-04
-1.278970000000000055e-05
2.899595600000000242e-03
-1.285020000000000107e-05
2.594651400000000038e-03
4.830211100000000521e-03
4.525533100000000454e-03
2.485243200000000329e-03
-1.283810000000000165e-05
4.027364000000000291e-04
-1.288650000000000105e-05
0.000000000000000000e+00
-1.222910700000000035e-03
-1.287440000000000162e-05
-1.608670800000000034e-03
-1.286230000000000050e-05
-2.615209300000000386e-03
-1.280180000000000167e-05
0.000000000000000000e+00
-3.931168999999999983e-03
-1.272920000000000003e-05
-2.376875600000000286e-03
-3.100733900000000355e-03
-1.286230000000000050e-05
-2.651364100000000272e-03
4.105409000000000185e-04
2.865243700000000195e-03
2.992003300000000126e-03
5.072961300000000499e-03
4.124490700000000426e-03
4.309899000000000716e-03
1.516722900000000169e-03
9.010870000000000685e-05
-1.714872500000000051e-03
-1.467270200000000187e-03
-3.424626700000000298e-03
8.616894000000000376e-04
2.562973600000000279e-03
3.927708400000000377e-03
-1.281390000000000110e-05
4.927289400000000631e-03
3.670353500000000067e-03
4.181070299999999941e-03
3.629709600000000265e-03
7.951394000000000734e-04
-1.277760000000000113e-05
-4.541856000000000040e-04
-1.277760000000000113e-05
-1.669122400000000016e-03
-1.278970000000000055e-05
-2.024511500000000276e-03
-1.287440000000000162e-05
-3.725311700000000052e-03
-2.612196400000000359e-03
-1.283810000000000165e-05
-3.245631400000000260e-03
-2.478080000000000167e-05
-8.683193530000000993e-02
2.621900600000000130e-03
2.735386499999999978e-03
4.530615100000000457e-03
4.587085800000000567e-03
4.379546599999999991e-03
2.688462700000000209e-03
-1.642853300000000211e-03
-3.627083900000000437e-03
-2.662871200000000316e-03
-2.995282400000000289e-03
-2.741775300000000217e-03
3.310439000000000307e-04
1.574415700000000038e-03
3.195706800000000253e-03
-1.283810000000000165e-05
4.674000100000000671e-03
4.380454100000000239e-03
-1.278970000000000055e-05
3.659596600000000408e-03
4.277458900000000348e-03
-1.277760000000000113e-05
0.000000000000000000e+00
1.657651600000000208e-03
-1.281390000000000110e-05
0.000000000000000000e+00
1.539725000000000035e-04
-1.767023500000000115e-03
-1.277760000000000113e-05
-3.652820600000000403e-03
-2.347726700000000305e-03
-1.287440000000000162e-05
-3.310947200000000350e-03
8.825014000000000816e-04
2.022672300000000201e-03
2.901797800000000069e-03
-1.288650000000000105e-05
4.951307900000000151e-03
3.892025500000000082e-03
-1.281390000000000110e-05
-1.921129100000000187e-03
-1.828140600000000221e-03
-2.321167200000000350e-03
-7.211721000000001014e-04
2.691269900000000347e-03
2.734128100000000200e-03
-1.291070000000000160e-05
4.143632900000000265e-03
5.015256400000000191e-03
-1.278970000000000055e-05
3.348953300000000102e-03
4.412386000000000346e-04
-1.281390000000000110e-05
-1.836876800000000146e-03
-2.224234100000000314e-03
-3.955151200000000568e-03
-2.826281700000000171e-03
-2.970731500000000063e-03
-1.278970000000000055e-05
2.125486000000000270e-04
1.454746700000000056e-03
-1.282600000000000053e-05
2.977495400000000278e-03
-1.286230000000000050e-05
0.000000000000000000e+00
2.743675000000000107e-03
-1.285020000000000107e-05
0.000000000000000000e+00
0.000000000000000000e+00
4.898576100000000440e-03
-1.281390000000000110e-05
0.000000000000000000e+00
3.413047000000000216e-03
4.469050300000000121e-03
2.334453000000000060e-04
-1.458618700000000089e-03
-2.189458700000000268e-03
-3.381211900000000159e-03
7.220554000000000121e-04
2.127845500000000341e-03
2.659059700000000314e-03
-1.277760000000000113e-05
3.532897500000000291e-03
-1.280180000000000167e-05
5.068968300000000621e-03
-1.289860000000000048e-05
3.764370500000000126e-03
-1.286230000000000050e-05
3.996642100000000371e-03
-1.278970000000000055e-05
0.000000000000000000e+00
1.052143400000000095e-03
-2.569677000000000029e-04
-1.278970000000000055e-05
-1.721225000000000055e-03
-1.748546800000000184e-03
-2.461515100000000091e-03
-3.365070500000000124e-03
-1.281390000000000110e-05
-9.712307000000000318e-04
2.536232600000000014e-03
2.613708900000000050e-03
-1.285020000000000107e-05
4.368741300000000306e-03
4.696760200000000413e-03
4.339931200000000065e-03
3.058262900000000267e-03
5.220908000000000666e-04
-7.921628000000000653e-04
-1.650875600000000203e-03
-2.475381700000000261e-03
-2.841503500000000168e-03
-1.277760000000000113e-05
0.000000000000000000e+00
-2.955558100000000091e-03
-1.272920000000000003e-05
0.000000000000000000e+00
1.465927100000000149e-03
2.713691200000000348e-03
3.043513000000000294e-03
4.598810700000000723e-03
4.509633700000000543e-03
-1.285020000000000107e-05
3.596398300000000318e-03
4.347408999999999996e-03
2.039442900000000124e-03
-1.775106300000000139e-03
-2.858830700000000377e-03
-2.452778899999999949e-03
7.234711000000000874e-04
3.337688200000000181e-03
4.105142800000000265e-03
3.771884600000000292e-03
4.090961599999999934e-03
-1.280180000000000167e-05
1.046807300000000178e-03
-1.286230000000000050e-05
0.000000000000000000e+00
2.931830000000000354e-05
-1.277760000000000113e-05
-3.602956500000000211e-03
-1.124961200000000128e-03
9.801847000000000684e-04
-1.286230000000000050e-05
2.508608300000000381e-03
3.450569100000000153e-03
3.267048400000000397e-03
-1.905858900000000165e-03
-1.983419900000000027e-03
-1.286230000000000050e-05
-3.897240600000000370e-03
-1.278970000000000055e-05
-2.898240399999999981e-03
-2.585358600000000045e-03
-3.190963600000000424e-03
1.314035800000000129e-03
-1.283810000000000165e-05
2.933282000000000164e-03
-1.278970000000000055e-05
0.000000000000000000e+00
0.000000000000000000e+00
0.000000000000000000e+00
2.628858100000000010e-03
-1.285020000000000107e-05
0.000000000000000000e+00
0.000000000000000000e+00
0.000000000000000000e+00
4.763818400000000529e-03
-1.285020000000000107e-05
0.000000000000000000e+00
0.000000000000000000e+00
0.000000000000000000e+00
4.623034900000000565e-03
3.353297200000000377e-03
2.230719700000000170e-03
-2.901628399999999983e-03
-3.832481400000000132e-03
-2.300173700000000213e-03
-3.218466900000000429e-03
1.936024200000000233e-03
3.953771800000000294e-03
3.958732800000000669e-03
-8.001721529999999971e-02
1.304283200000000116e-03
-1.289860000000000048e-05
-7.394310000000000021e-05
-1.628768900000000146e-03
-1.277760000000000113e-05
-3.561562400000000024e-03
-3.319066300000000393e-03
-1.281390000000000110e-05
-2.387208999999999946e-03
-1.281390000000000110e-05
0.000000000000000000e+00
-3.368180200000000200e-03
-1.281390000000000110e-05
-1.372006900000000140e-03
9.944748000000000216e-04
-1.292280000000000102e-05
0.000000000000000000e+00
2.409303599999999997e-03
-1.282600000000000053e-05
2.604621800000000379e-03
4.130915800000000034e-03
3.665211000000000250e-03
4.235036300000000718e-03
3.383486700000000024e-03
-1.286230000000000050e-05
-6.078677000000000212e-04
-2.255911900000000074e-03
-3.103214400000000109e-03
4.523524500000000725e-03
4.595894599999999879e-03
4.360682700000000078e-03
2.869757000000000449e-04
-1.109061800000000000e-03
-1.287440000000000162e-05
-1.733276600000000162e-03
-1.282600000000000053e-05
-2.752629000000000360e-03
-1.277760000000000113e-05
-3.669470200000000265e-03
-1.275340000000000058e-05
-2.579707899999999967e-03
-1.276550000000000170e-05
0.000000000000000000e+00
-3.060561900000000144e-03
-1.277760000000000113e-05
-2.532941400000000062e-03
-1.285020000000000107e-05
0.000000000000000000e+00
5.429875000000000456e-04
-1.286230000000000050e-05
1.645648400000000126e-03
2.895033900000000288e-03
3.232732800000000153e-03
4.793076200000000349e-03
4.277083800000000373e-03
3.696453200000000220e-03
4.214175900000000433e-03
1.361709800000000066e-03
1.134012000000000079e-04
-1.692717400000000186e-03
-1.287440000000000162e-05
-3.191774300000000189e-03
-2.263474400000000265e-03
-1.281390000000000110e-05
-3.379360600000000294e-03
-1.525071900000000112e-03
9.173373000000000508e-04
-1.275340000000000058e-05
3.695969200000000406e-03
5.048652399999999964e-03
3.669990500000000315e-03
4.099697800000000510e-03
-1.283810000000000165e-05
3.614524100000000070e-03
-1.845685600000000108e-03
-1.278970000000000055e-05
0.000000000000000000e+00
0.000000000000000000e+00
0.000000000000000000e+00
-3.142285300000000406e-03
-2.419842699999999978e-03
-1.283810000000000165e-05
-3.970131000000000224e-04
1.118403000000000019e-03
2.653723599999999964e-03
4.881720800000000256e-03
-1.278970000000000055e-05
3.312060400000000054e-03
-1.283810000000000165e-05
4.478258400000000722e-03
3.995420000000000178e-04
-2.494947400000000100e-03
-2.709177899999999986e-03
3.912535000000000513e-04
2.934104800000000152e-03
2.930027100000000013e-03
-1.287440000000000162e-05
5.041815900000000579e-03
-1.282600000000000053e-05
4.217781700000000113e-03
3.598213300000000382e-03
-1.276550000000000170e-05
4.353241199999999950e-03
1.243396000000000182e-04
-1.258400000000000013e-05
-1.454129600000000173e-03
-1.285020000000000107e-05
-3.391254900000000103e-03
-1.281390000000000110e-05
-3.586222200000000089e-03
-2.207185200000000031e-03
-1.688313000000000097e-03
8.383485000000001066e-04
2.323962300000000265e-03
-1.289860000000000048e-05
4.801280000000000218e-05
-9.126769850000000794e-02
-6.573119300000000199e-03
3.816824000000000345e-03
5.028082400000000694e-03
3.628136600000000326e-03
-4.026880000000000043e-04
-8.938435770000000002e-02
-3.818614800000000396e-03
-3.284678100000000111e-03
-6.490440000000000965e-04
-1.283810000000000165e-05
1.205317300000000123e-03
-1.283810000000000165e-05
2.668388800000000109e-03
-1.280180000000000167e-05
2.645858600000000269e-03
4.552395100000000347e-03
4.632884299999999976e-03
2.728477400000000122e-03
4.297799000000000150e-04
-1.021348900000000138e-03
-1.283810000000000165e-05
-1.575202200000000007e-03
-2.703708700000000218e-03
-1.285020000000000107e-05
-3.668199700000000264e-03
-1.283810000000000165e-05
-3.039749900000000317e-03
-2.731357200000000297e-03
-1.291070000000000160e-05
2.499981000000000078e-04
1.626385200000000008e-03
2.714792300000000262e-03
1.485153999999999977e-04
4.325556400000000502e-03
3.700409900000000297e-03
4.271106400000000344e-03
1.756121400000000164e-03
1.013859000000000011e-04
-1.695222100000000169e-03
-3.208750600000000001e-03
-1.288650000000000105e-05
-3.496440200000000033e-03
-1.291070000000000160e-05
9.984780850000000985e-02
8.470726000000000254e-04
-1.289860000000000048e-05
2.804852600000000244e-03
3.702055500000000273e-03
4.839358700000000006e-03
-1.285020000000000107e-05
4.019111799999999964e-03
-1.287440000000000162e-05
8.602374000000000522e-04
-1.966734000000000201e-04
-1.775457200000000102e-03
-1.969589600000000093e-03
-1.280180000000000167e-05
-3.463915400000000273e-03
-3.305490100000000372e-03
-2.431906400000000308e-03
-7.554514000000000021e-04
1.075629499999999992e-03
2.586738000000000318e-03
2.844818900000000133e-03
3.479379200000000394e-03
2.920395500000000279e-03
-2.257666400000000323e-03
-2.754528700000000250e-03
-2.783181500000000193e-03
-5.075107840000000342e-02
-1.421750000000000067e-05
-1.356410000000000113e-05
2.087008000000000060e-04
3.008749700000000037e-03
-1.287440000000000162e-05
2.833057700000000175e-03
-1.285020000000000107e-05
4.753751200000000572e-03
-1.278970000000000055e-05
0.000000000000000000e+00
4.586323500000000393e-03
-1.287440000000000162e-05
3.386136600000000298e-03
-1.291070000000000160e-05
4.486776799999999885e-03
-1.285020000000000107e-05
-1.557959700000000058e-03
-1.605379600000000082e-03
-2.925199200000000357e-03
-3.874105400000000220e-03
-2.196500899999999975e-03
-3.315472600000000068e-03
-2.080062600000000348e-03
-1.283810000000000165e-05
2.038511200000000297e-03
2.849416900000000322e-03
3.335740100000000267e-03
5.161690600000000233e-03
3.822426300000000398e-03
3.893707400000000294e-03
4.012626200000000108e-03
9.844318000000000773e-04
-1.286230000000000050e-05
-1.392589000000000229e-04
-1.885918100000000134e-03
-3.691310700000000403e-03
-3.323700600000000383e-03
-1.283810000000000165e-05
-2.268132900000000268e-03
-3.442377400000000073e-03
-1.004191100000000015e-03
2.534635400000000063e-03
4.906223300000000023e-03
3.402495800000000445e-03
-1.277760000000000113e-05
4.394187600000000124e-03
3.087484400000000285e-03
-1.635569100000000163e-03
-2.332190300000000147e-03
-3.834139100000000331e-03
-2.675055900000000274e-03
-2.820413199999999981e-03
-2.138070000000000012e-05
2.743590300000000280e-03
2.879872600000000105e-03
-1.287440000000000162e-05
4.795847100000000252e-03
4.394030300000000694e-03
4.347058100000000466e-03
2.094485799999999936e-03
2.318723000000000127e-04
-1.361782400000000103e-03
-1.567555000000000207e-03
-3.092868900000000226e-03
-3.545154800000000286e-03
-2.440279600000000264e-03
-3.238952200000000305e-03
6.800563000000000571e-04
2.711247000000000396e-03
3.980186100000000608e-03
-1.095292000000000016e-04
-3.391920400000000228e-03
2.352469900000000134e-03
3.245256300000000284e-03
-3.148214300000000410e-03
-6.986540000000001044e-05
2.887302000000000011e-03
-1.282600000000000053e-05
0.000000000000000000e+00
0.000000000000000000e+00
3.370152500000000127e-03
-1.739786400000000030e-03
-2.652525700000000000e-03
-1.282600000000000053e-05
-2.369083200000000194e-03
-3.122634900000000307e-03
1.766757300000000195e-03
5.049753500000000311e-03
3.671732900000000341e-03
-1.519445400000000047e-03
-3.452359900000000204e-03
-3.451004700000000376e-03
9.679758000000000980e-04
2.614918900000000237e-03
4.249181200000000380e-03
6.389647000000000252e-04
-1.739193500000000159e-03
-2.026895199999999980e-03
-2.859048500000000055e-03
-3.208496500000000088e-03
2.760179400000000328e-03
4.730386100000000087e-03
2.381292100000000165e-03
-1.241024399999999996e-03
4.983649990000000446e-02
-2.463342200000000377e-03
-2.516255499999999964e-03
1.813620600000000150e-03
2.668388800000000109e-03
3.356975600000000094e-03
3.808390300000000141e-03
4.125095700000000302e-03
1.448176400000000157e-03
-1.546355800000000181e-03
-1.289860000000000048e-05
-1.752406700000000211e-03
-3.340858400000000072e-03
-1.285020000000000107e-05
-2.414603400000000111e-03
-3.322188100000000258e-03
-1.512536300000000191e-03
9.839720000000000584e-04
3.920254800000000026e-03
3.793555700000000343e-03
4.134122300000000159e-03
-3.920884000000000457e-04
-3.546594700000000374e-03
-2.544218600000000205e-03
-4.060639000000000544e-04
3.461265500000000432e-03
4.386286300000000193e-03
3.672471000000000502e-04
-1.021699800000000101e-03
-1.821679200000000162e-03
-2.466173600000000094e-03
-2.561110200000000191e-03
-2.721132700000000043e-03
4.373012600000000111e-03
4.349054599999999972e-03
2.104190000000000194e-04
-1.578868500000000152e-03
-3.154796700000000315e-03
-3.748531600000000463e-03
-3.392501200000000092e-03
-1.700001600000000017e-03
-1.283810000000000165e-05
2.238100700000000050e-03
2.769363300000000049e-03
3.578562900000000283e-03
5.141217400000000146e-03
-1.278970000000000055e-05
3.627144400000000251e-03
4.077615300000000248e-03
3.722758600000000261e-03
7.640908000000000942e-04
-3.151929000000000362e-04
-1.907710200000000030e-03
-1.725931900000000083e-03
-3.793458900000000293e-03
-3.137638900000000192e-03
-3.361428400000000209e-03
2.777300900000000215e-03
-1.288650000000000105e-05
0.000000000000000000e+00
2.533582700000000174e-03
4.493697999999999963e-03
4.792483300000000696e-03
-1.280180000000000167e-05
4.463617400000000589e-03
-1.285020000000000107e-05
2.729227600000000073e-03
-1.287440000000000162e-05
-1.081062400000000175e-03
-3.835445900000000134e-03
-2.971433299999999989e-03
2.464769999999999917e-04
3.030844300000000088e-03
4.916544600000000327e-03
3.691843100000000242e-03
1.714981400000000107e-03
1.204918000000000108e-04
-1.576859900000000207e-03
-3.481883900000000160e-03
-3.302235200000000221e-03
-1.285020000000000107e-05
8.560629000000000806e-04
2.124989900000000178e-03
2.659725200000000005e-03
3.781903400000000224e-03
-1.281390000000000110e-05
0.000000000000000000e+00
0.000000000000000000e+00
4.050281400000000330e-03
-2.796794000000000450e-04
-2.008696800000000192e-03
-3.489906200000000153e-03
-2.492466900000000346e-03
2.508317900000000232e-03
2.806897500000000208e-03
4.243482100000000277e-03
3.598939300000000320e-03
-1.283810000000000165e-05
2.878190700000000327e-03
-1.285020000000000107e-05
0.000000000000000000e+00
4.434650000000000375e-04
-7.811397000000000522e-04
-1.803698600000000051e-03
-1.274130000000000115e-05
-3.676258300000000059e-03
-1.274130000000000115e-05
0.000000000000000000e+00
-2.800774900000000105e-03
-1.285020000000000107e-05
0.000000000000000000e+00
2.190342000000000179e-04
-1.278970000000000055e-05
0.000000000000000000e+00
2.896086600000000177e-03
-1.275340000000000058e-05
0.000000000000000000e+00
2.988264400000000161e-03
4.600286900000000179e-03
-1.281390000000000110e-05
3.488006500000000263e-03
-1.285020000000000107e-05
0.000000000000000000e+00
1.821449300000000044e-03
-1.291070000000000160e-05
0.000000000000000000e+00
-1.466350600000000150e-03
-1.283810000000000165e-05
0.000000000000000000e+00
0.000000000000000000e+00
-1.729162600000000221e-03
-2.866139100000000221e-03
-1.280180000000000167e-05
-3.815105800000000331e-03
-2.295757200000000334e-03
-3.258263800000000231e-03
-1.280180000000000167e-05
-2.072439600000000343e-03
7.608964000000000829e-04
1.943356800000000089e-03
-1.289860000000000048e-05
3.327512100000000386e-03
-1.283810000000000165e-05
0.000000000000000000e+00
5.045760500000000433e-03
3.944285400000000635e-03
3.845912400000000078e-03
-1.285020000000000107e-05
4.017962300000000458e-03
9.253717000000000496e-04
-5.706360000000000707e-05
-1.281390000000000110e-05
-1.929901600000000130e-03
-1.650609400000000067e-03
-1.278970000000000055e-05
0.000000000000000000e+00
-3.551253200000000377e-03
-3.435710300000000342e-03
-2.244779900000000005e-03
-1.277760000000000113e-05
-9.827862000000001010e-04
-1.277760000000000113e-05
0.000000000000000000e+00
0.000000000000000000e+00
1.020574500000000174e-03
2.642797300000000217e-03
-1.280180000000000167e-05
0.000000000000000000e+00
2.642942500000000292e-03
4.106679499999999969e-03
-1.281390000000000110e-05
3.377763400000000343e-03
-1.289860000000000048e-05
0.000000000000000000e+00
3.055044300000000351e-03
-1.291070000000000160e-05
0.000000000000000000e+00
5.254304000000000439e-04
-1.283810000000000165e-05
0.000000000000000000e+00
0.000000000000000000e+00
0.000000000000000000e+00
0.000000000000000000e+00
0.000000000000000000e+00
-7.827732000000000223e-04
-2.144023200000000177e-03
-3.937364200000000557e-03
-2.721604600000000068e-03
-2.725089400000000120e-03
-3.085947700000000148e-03
-1.283810000000000165e-05
1.417744900000000169e-03
-1.289860000000000048e-05
2.906468400000000295e-03
2.686974400000000096e-03
-1.278970000000000055e-05
4.855342800000000611e-03
4.492427499999999962e-03
-1.289860000000000048e-05
3.438239200000000120e-03
4.463460100000000291e-03
2.672769000000000295e-04
-1.475377200000000007e-03
-3.721766400000000186e-03
-3.272069900000000153e-03
6.276754000000000925e-04
2.656373500000000238e-03
4.997251600000000502e-03
3.931181100000000206e-03
-1.673381600000000032e-03
-1.282600000000000053e-05
-3.589924800000000252e-03
-3.244530300000000346e-03
-3.354204700000000192e-03
-1.179169200000000162e-03
1.057189100000000079e-03
2.657873900000000140e-03
4.724251400000000628e-03
4.283291100000000302e-03
5.829659000000000490e-04
-1.679734100000000036e-03
-2.751612600000000273e-03
-3.063611100000000406e-03
1.359834300000000188e-03
2.700393300000000253e-03
2.978221400000000216e-03
4.492137100000000681e-03
4.609543399999999937e-03
3.564672100000000100e-03
4.371439600000000605e-03
-1.274130000000000115e-05
2.212763300000000072e-03
2.944656000000000357e-04
-1.283810000000000165e-05
-1.759327900000000073e-03
-1.282600000000000053e-05
0.000000000000000000e+00
-2.506744900000000293e-03
-1.286230000000000050e-05
-3.116621200000000043e-03
6.428004000000000400e-04
-1.286230000000000050e-05
2.947330100000000210e-03
3.242061900000000382e-03
3.709605900000000241e-03
-1.277760000000000113e-05
0.000000000000000000e+00
1.016279000000000032e-04
-1.283810000000000165e-05
0.000000000000000000e+00
0.000000000000000000e+00
-1.793873400000000218e-03
-1.701695600000000018e-03
-3.275252200000000266e-03
-3.631960200000000118e-03
-3.427506500000000039e-03
-1.347165600000000199e-03
9.407750000000000314e-04
2.382937700000000141e-03
2.804586400000000108e-03
-1.287440000000000162e-05
5.113871400000000005e-03
-1.282600000000000053e-05
0.000000000000000000e+00
3.554580700000000131e-03
4.206153600000000006e-03
3.424832400000000186e-03
6.174509000000000551e-04
-4.745620000000000415e-04
-1.283810000000000165e-05
-1.917850000000000023e-03
-1.911509600000000026e-03
-3.835929900000000382e-03
-2.991773400000000225e-03
-1.278970000000000055e-05
-2.522245000000000216e-03
-3.246442100000000025e-03
-1.283810000000000165e-05
0.000000000000000000e+00
-3.203475000000000224e-04
-1.282600000000000053e-05
1.234224199999999980e-03
-1.283810000000000165e-05
2.903927400000000294e-03
2.600628800000000067e-03
-1.281390000000000110e-05
0.000000000000000000e+00
0.000000000000000000e+00
4.604219400000000677e-03
4.769650600000000483e-03
-1.278970000000000055e-05
0.000000000000000000e+00
0.000000000000000000e+00
0.000000000000000000e+00
0.000000000000000000e+00
4.514848800000000398e-03
-1.285020000000000107e-05
0.000000000000000000e+00
0.000000000000000000e+00
2.422081200000000042e-03
3.550866000000000504e-04
-1.277760000000000113e-05
0.000000000000000000e+00
0.000000000000000000e+00
0.000000000000000000e+00
0.000000000000000000e+00
0.000000000000000000e+00
-1.538962700000000077e-03
-1.278970000000000055e-05
0.000000000000000000e+00
0.000000000000000000e+00
0.000000000000000000e+00
0.000000000000000000e+00
-2.739911900000000129e-03
-3.856197400000000147e-03
-1.285020000000000107e-05
0.000000000000000000e+00
0.000000000000000000e+00
0.000000000000000000e+00
-3.110232400000000237e-03
-1.280180000000000167e-05
0.000000000000000000e+00
0.000000000000000000e+00
-2.565442000000000243e-03
-1.280180000000000167e-05
4.527094000000000062e-04
-1.278970000000000055e-05
0.000000000000000000e+00
1.815193600000000089e-03
-1.276550000000000170e-05
0.000000000000000000e+00
2.767233700000000258e-03
-1.276550000000000170e-05
0.000000000000000000e+00
3.135061600000000389e-03
-1.275340000000000058e-05
0.000000000000000000e+00
0.000000000000000000e+00
5.040980999999999934e-03
-1.278970000000000055e-05
0.000000000000000000e+00
0.000000000000000000e+00
4.036124400000000445e-03
-1.287440000000000162e-05
0.000000000000000000e+00
3.757546100000000097e-03
-1.286230000000000050e-05
0.000000000000000000e+00
4.231176400000000691e-03
-1.285020000000000107e-05
0.000000000000000000e+00
0.000000000000000000e+00
0.000000000000000000e+00
1.430437800000000171e-03
-1.285020000000000107e-05
0.000000000000000000e+00
2.181629999999999981e-05
-1.289860000000000048e-05
0.000000000000000000e+00
-1.643881800000000087e-03
-1.281390000000000110e-05
0.000000000000000000e+00
-1.571427000000000023e-03
-1.281390000000000110e-05
0.000000000000000000e+00
-3.481460400000000160e-03
-1.282600000000000053e-05
3.521112100000000321e-03
-1.679008100000000097e-03
-3.591812400000000353e-03
-5.225626999999999833e-04
-1.280180000000000167e-05
0.000000000000000000e+00
2.604658100000000181e-03
2.868123500000000371e-03
-1.283810000000000165e-05
4.396002600000000621e-03
-1.278970000000000055e-05
0.000000000000000000e+00
2.591081900000000160e-03
-9.839236000000000336e-04
-1.774961100000000064e-03
-2.597555400000000226e-03
-3.690149100000000241e-03
-1.283810000000000165e-05
-2.662024200000000316e-03
-2.967222499999999999e-03
-2.698021700000000338e-03
4.107829000000000341e-04
1.539011100000000102e-03
2.923202699999999984e-03
-1.276550000000000170e-05
3.102391600000000121e-03
4.712962100000000695e-03
-1.276550000000000170e-05
4.434879899999999951e-03
-1.287440000000000162e-05
3.545300000000000361e-03
4.312972400000000123e-03
-1.631491400000000024e-03
-1.281390000000000110e-05
0.000000000000000000e+00
-1.700945400000000067e-03
-1.283810000000000165e-05
-3.064893700000000196e-03
-3.382167800000000432e-03
-1.285020000000000107e-05
-1.719143800000000073e-03
-1.277760000000000113e-05
8.452818000000000831e-04
-1.277760000000000113e-05
0.000000000000000000e+00
3.745228300000000288e-03
-1.278970000000000055e-05
3.983961299999999942e-03
-1.271710000000000060e-05
3.780015800000000124e-03
-1.280180000000000167e-05
7.766264000000000153e-04
-1.281390000000000110e-05
0.000000000000000000e+00
-2.371479000000000067e-04
-1.286230000000000050e-05
-2.344762200000000303e-03
-3.384454700000000087e-03
-1.280180000000000167e-05
-6.426552000000000740e-04
-1.276550000000000170e-05
1.117967400000000012e-03
-1.272920000000000003e-05
2.801440400000000230e-03
2.568660600000000158e-03
-1.283810000000000165e-05
0.000000000000000000e+00
4.393860900000000173e-03
-1.291070000000000160e-05
4.899773999999999970e-03
-1.282600000000000053e-05
3.317759500000000156e-03
-1.281390000000000110e-05
0.000000000000000000e+00
4.474713100000000422e-03
2.756416300000000350e-03
-1.282600000000000053e-05
0.000000000000000000e+00
4.566661000000000288e-04
-1.276550000000000170e-05
-1.054708600000000109e-03
-1.270500000000000118e-05
-1.610231700000000184e-03
-1.272920000000000003e-05
0.000000000000000000e+00
-2.475127600000000348e-03
-1.276550000000000170e-05
-3.895353000000000270e-03
-1.282600000000000053e-05
0.000000000000000000e+00
-2.507870200000000219e-03
-1.278970000000000055e-05
-2.967549200000000383e-03
-1.283810000000000165e-05
-2.810745300000000012e-03
-1.278970000000000055e-05
2.123308000000000237e-04
-1.280180000000000167e-05
1.625901200000000194e-03
-1.286230000000000050e-05
2.808881900000000358e-03
-1.285020000000000107e-05
0.000000000000000000e+00
2.931660600000000200e-03
-1.280180000000000167e-05
0.000000000000000000e+00
4.961399300000000553e-03
-1.278970000000000055e-05
0.000000000000000000e+00
4.238859900000000076e-03
-1.275340000000000058e-05
0.000000000000000000e+00
3.622001900000000434e-03
-1.276550000000000170e-05
0.000000000000000000e+00
4.354136599999999975e-03
-1.285020000000000107e-05
1.725762500000000213e-03
-1.278970000000000055e-05
0.000000000000000000e+00
1.538273000000000103e-04
-1.278970000000000055e-05
9.833021440000000446e-02
-8.954000000000000372e-07
1.015012977000000066e-01
0.000000000000000000e+00
-1.503751700000000024e-03
-1.287440000000000162e-05
0.000000000000000000e+00
-3.330198300000000028e-03
-1.285020000000000107e-05
0.000000000000000000e+00
-3.472748400000000030e-03
-2.375895500000000000e-03
-3.312665400000000364e-03
-1.913784400000000108e-03
2.161435100000000213e-03
2.618585200000000165e-03
-1.280180000000000167e-05
3.765991900000000090e-03
4.869693400000000595e-03
3.816932900000000184e-03
4.054129200000000134e-03
3.794402700000000343e-03
9.335634000000000206e-04
-2.991846000000000154e-04
-1.643688200000000205e-03
-1.976789100000000098e-03
-3.548833200000000437e-03
-3.174241400000000091e-03
-2.513690300000000384e-03
-3.283068800000000370e-03
-8.805775000000000711e-04
1.176833900000000049e-03
2.495600800000000001e-03
2.779793500000000191e-03
4.263555999999999943e-03
3.587214400000000164e-03
-1.281390000000000110e-05
4.303268199999999918e-03
-7.867541000000000031e-04
-3.667679400000000214e-03
-2.807877600000000060e-03
-1.278970000000000055e-05
-2.813020100000000311e-03
-1.239040000000000084e-05
-9.109423290000000228e-02
1.758493000000000241e-04
1.378674000000000089e-03
-1.286230000000000050e-05
3.009899200000000410e-03
4.579837900000000538e-03
3.506822000000000151e-03
-1.282600000000000053e-05
4.348086600000000343e-03
1.898320600000000203e-03
-1.437746200000000014e-03
-2.850227600000000087e-03
-1.283810000000000165e-05
-3.815323600000000443e-03
-1.278970000000000055e-05
-2.298624900000000287e-03
-1.276550000000000170e-05
-3.248438600000000398e-03
-2.114801700000000159e-03
7.424439000000000559e-04
2.935326900000000128e-03
3.299766800000000257e-03
5.023907900000000072e-03
-1.283810000000000165e-05
3.771134400000000341e-03
-1.287440000000000162e-05
9.877956000000000670e-04
-8.069490000000000560e-05
-1.620855500000000209e-03
-3.567176800000000300e-03
-1.289860000000000048e-05
0.000000000000000000e+00
-3.434960100000000391e-03
-3.478967800000000183e-03
-1.287440000000000162e-05
2.645967500000000108e-03
2.612268999999999963e-03
-1.287440000000000162e-05
0.000000000000000000e+00
4.092728200000000406e-03
5.047769100000000161e-03
3.365082600000000347e-03
4.323644599999999956e-03
5.243898000000000526e-04
-1.285020000000000107e-05
-7.963736000000000556e-04
-2.165524900000000141e-03
-1.281390000000000110e-05
-2.690725400000000284e-03
-2.733716699999999989e-03
-3.077707600000000043e-03
-4.493940000000000548e-05
1.429796500000000059e-03
2.872043900000000212e-03
-1.276550000000000170e-05
4.845783800000000481e-03
3.440901200000000184e-03
-1.282600000000000053e-05
4.443095800000000477e-03
-1.281390000000000110e-05
2.105835600000000116e-03
2.474208000000000418e-04
-1.466314300000000131e-03
-3.247228600000000211e-03
-1.283810000000000165e-05
-2.257025100000000211e-03
-1.277760000000000113e-05
6.280505000000000679e-04
2.015702700000000097e-03
2.652126400000000012e-03
3.468102000000000251e-03
3.883531300000000065e-03
3.918899600000000198e-03
-1.287440000000000162e-05
4.033498700000000617e-03
1.180040400000000175e-03
-1.283810000000000165e-05
-1.541056000000000175e-04
-1.286230000000000050e-05
-1.648782300000000214e-03
-1.759424700000000123e-03
-3.254004600000000216e-03
-2.448931100000000145e-03
-3.330996900000000437e-03
-1.282600000000000053e-05
1.054587600000000047e-03
2.419745900000000362e-03
-1.278970000000000055e-05
4.175359100000000483e-03
4.763104500000000380e-03
-1.281390000000000110e-05
3.632988700000000428e-03
4.276478800000000496e-03
5.622628000000000608e-04
-1.288650000000000105e-05
-2.318021200000000039e-03
-3.606211400000000362e-03
-2.941473700000000243e-03
-1.285020000000000107e-05
-2.717563200000000165e-03
-3.069842600000000348e-03
-1.781241000000000248e-04
2.703708700000000218e-03
2.955824300000000227e-03
4.491011799999999887e-03
4.624777300000000591e-03
-1.272920000000000003e-05
3.535027100000000082e-03
4.355830599999999976e-03
-1.288650000000000105e-05
2.241525000000000288e-03
-1.195346899999999999e-03
-1.774065700000000039e-03
-1.283810000000000165e-05
-2.738411500000000227e-03
-3.727114600000000326e-03
-2.509866700000000159e-03
2.946942900000000011e-03
-1.272920000000000003e-05
4.819962400000000688e-03
-1.287440000000000162e-05
4.249072300000000108e-03
-1.288650000000000105e-05
3.681582300000000186e-03
4.176363399999999913e-03
1.220793200000000033e-03
8.549860000000000164e-05
-1.790848400000000186e-03
-1.285020000000000107e-05
-1.702639400000000068e-03
-3.252830900000000264e-03
-1.287440000000000162e-05
-3.655954500000000058e-03
-1.400901699999999991e-03
2.372422800000000172e-03
2.800750700000000093e-03
-1.283810000000000165e-05
3.742179100000000459e-03
5.098262400000000243e-03
-1.282600000000000053e-05
4.140607900000000015e-03
-1.272920000000000003e-05
3.497299300000000256e-03
6.186246000000000063e-04
-4.843267000000000058e-04
-1.939557400000000093e-03
-1.886438400000000183e-03
-2.465132999999999994e-03
-1.278970000000000055e-05
1.215759600000000055e-03
2.913909899999999990e-03
2.594736100000000299e-03
4.565705100000000231e-03
3.290183600000000114e-03
4.499336600000000685e-03
-1.282600000000000053e-05
2.429607399999999997e-03
-1.283810000000000165e-05
3.561998000000000247e-04
-1.287440000000000162e-05
-1.566574900000000138e-03
-3.895534500000000146e-03
-2.370329500000000183e-03
-1.282600000000000053e-05
-3.090715100000000423e-03
-2.598317699999999966e-03
4.546575000000000291e-04
1.785028300000000021e-03
-1.280180000000000167e-05
2.802311600000000243e-03
5.047926400000000459e-03
-1.283810000000000165e-05
3.715994700000000046e-03
1.423480300000000073e-03
-1.283810000000000165e-05
2.826560000000000259e-05
-1.282600000000000053e-05
-1.528048500000000120e-03
-3.511528900000000179e-03
-3.402169100000000061e-03
-2.335650900000000186e-03
-3.363848400000000148e-03
-1.602136800000000154e-03
-1.281390000000000110e-05
9.225403000000001160e-04
2.347218500000000044e-03
3.986151400000000414e-03
4.855584800000000735e-03
4.176254500000000508e-03
3.560219300000000420e-03
-1.283810000000000165e-05
1.229127680000000056e-02
-5.139111999999999934e-04
-2.134851400000000246e-03
-1.277760000000000113e-05
-3.009850800000000385e-03
-2.620158200000000104e-03
-3.193540900000000227e-03
1.287911900000000181e-03
2.597494899999999978e-03
-1.278970000000000055e-05
4.607401700000000357e-03
-9.984557000000001108e-04
-1.721479100000000186e-03
-3.001356600000000367e-03
-2.676495800000000362e-03
-1.283810000000000165e-05
0.000000000000000000e+00
4.023371000000000412e-04
-1.287440000000000162e-05
2.837087000000000289e-03
3.172692600000000165e-03
4.674605100000000547e-03
-1.275340000000000058e-05
4.371947800000000432e-03
-1.278970000000000055e-05
0.000000000000000000e+00
0.000000000000000000e+00
3.631948100000000328e-03
-1.278970000000000055e-05
0.000000000000000000e+00
0.000000000000000000e+00
4.240602300000000102e-03
1.561904300000000129e-03
-1.281390000000000110e-05
-1.577791600000000034e-03
-3.062013900000000021e-03
-2.291256000000000195e-03
-1.285020000000000107e-05
-3.328988300000000275e-03
8.599349000000000055e-04
2.105279000000000265e-03
2.892722800000000188e-03
-1.280180000000000167e-05
3.503337200000000099e-03
3.791341400000000292e-03
3.947975900000000142e-03
-1.281390000000000110e-05
3.786816000000000140e-03
-1.283810000000000165e-05
7.611142000000000862e-04
-1.980298100000000162e-03
-1.737148600000000195e-03
-3.687559700000000214e-03
-3.276232300000000118e-03
-3.411498200000000289e-03
-1.277760000000000113e-05
-6.193264000000000408e-04
-1.280180000000000167e-05
1.080481600000000094e-03
-1.278970000000000055e-05
2.782661200000000144e-03
2.621029400000000117e-03
4.272667300000000494e-03
3.313972200000000166e-03
4.419016800000000710e-03
4.313771000000000207e-04
-1.287440000000000162e-05
-1.021869199999999971e-03
-3.991693200000000219e-03
-2.891282900000000100e-03
1.546694600000000138e-03
4.290551100000000555e-03
3.517228000000000281e-03
4.368692900000000282e-03
-1.289860000000000048e-05
1.763829100000000212e-03
1.408561000000000014e-04
-1.277760000000000113e-05
0.000000000000000000e+00
0.000000000000000000e+00
-1.627014400000000114e-03
-1.277760000000000113e-05
0.000000000000000000e+00
-1.463398200000000154e-03
-1.275340000000000058e-05
0.000000000000000000e+00
-3.304195400000000359e-03
-1.278970000000000055e-05
-3.598564200000000345e-03
-3.344790900000000136e-03
-1.958784299999999975e-03
2.180432099999999977e-03
3.684982400000000411e-03
-1.276550000000000170e-05
4.946092800000000296e-03
-1.286230000000000050e-05
3.729474100000000451e-03
4.038713800000000471e-03
-1.280180000000000167e-05
3.810326300000000267e-03
-3.346134000000000174e-04
-1.678015900000000022e-03
-3.660225800000000296e-03
-1.283810000000000165e-05
-3.126446400000000309e-03
-2.531525699999999986e-03
-3.288114500000000138e-03
-1.275340000000000058e-05
1.178443200000000007e-03
2.507204700000000095e-03
2.687748800000000059e-03
-1.280180000000000167e-05
4.343464400000000142e-03
4.665324400000000343e-03
3.567697100000000350e-03
2.918532100000000191e-03
-8.440355000000000947e-04
-2.552543400000000136e-03
-2.804840500000000021e-03
-2.890835200000000087e-03
-2.880586500000000254e-03
3.066309400000000272e-03
4.593474600000000373e-03
4.476298200000000151e-03
3.568362600000000041e-03
4.316215200000000050e-03
1.898090700000000085e-03
1.855656000000000178e-04
-1.281390000000000110e-05
-1.381965200000000041e-03
-1.286230000000000050e-05
0.000000000000000000e+00
-1.764954400000000138e-03
-1.280180000000000167e-05
-2.929760900000000310e-03
-1.285020000000000107e-05
0.000000000000000000e+00
-3.706133200000000412e-03
-1.283810000000000165e-05
-2.412982000000000148e-03
-3.228933400000000373e-03
-2.120464500000000026e-03
1.882263900000000212e-03
2.901108100000000366e-03
3.390335300000000066e-03
4.905388400000000246e-03
4.004470800000000698e-03
3.829117600000000142e-03
9.601108000000000775e-04
-5.054170000000000434e-05
-1.891919700000000175e-03
-1.286230000000000050e-05
-1.756242400000000226e-03
-1.286230000000000050e-05
-3.500941400000000172e-03
-2.252548100000000084e-03
-3.431705200000000240e-03
-1.286230000000000050e-05
-1.008607600000000111e-03
2.576779700000000201e-03
-1.280180000000000167e-05
4.000187400000000670e-03
5.028384900000000199e-03
-1.283810000000000165e-05
3.422037300000000271e-03
3.144281800000000345e-03
-7.181713000000000810e-04
-1.870490600000000031e-03
-3.936819700000000061e-03
-3.139224000000000354e-03
-1.226940000000000149e-05
-1.276550000000000170e-05
0.000000000000000000e+00
1.347105100000000168e-03
-1.281390000000000110e-05
2.948394900000000322e-03
2.065397400000000203e-03
2.563869000000000304e-04
-1.490913600000000165e-03
-1.494797700000000205e-03
-2.980036400000000280e-03
-1.281390000000000110e-05
-3.846033400000000140e-03
-1.281390000000000110e-05
-2.236684999999999975e-03
-1.281390000000000110e-05
-3.291187900000000412e-03
-1.280180000000000167e-05
-2.267310100000000279e-03
-1.283810000000000165e-05
6.271309000000000302e-04
2.722366900000000242e-03
3.333961400000000439e-03
-1.276550000000000170e-05
0.000000000000000000e+00
5.064043600000000048e-03
-1.277760000000000113e-05
3.871068300000000181e-03
3.853438600000000467e-03
1.149427400000000094e-03
-1.341164000000000158e-04
-1.757089400000000226e-03
-1.623033500000000025e-03
-3.667376900000000276e-03
-2.390863200000000084e-03
-3.375742700000000391e-03
-1.252301600000000140e-03
1.019122500000000080e-03
2.509709400000000295e-03
-1.275340000000000058e-05
2.528996800000000208e-03
-1.283810000000000165e-05
4.804462300000000331e-03
3.531856900000000191e-03
-1.275340000000000058e-05
3.243271900000000135e-03
-2.321554400000000115e-03
-1.282600000000000053e-05
-3.734798100000000145e-03
-1.277760000000000113e-05
-2.826305900000000183e-03
-3.056750400000000142e-03
2.870107900000000087e-03
4.645190000000000430e-03
4.492064500000000210e-03
-1.281390000000000110e-05
3.556238400000000330e-03
-1.276550000000000170e-05
4.373036800000000557e-03
-1.278970000000000055e-05
2.247163600000000143e-03
-1.278970000000000055e-05
0.000000000000000000e+00
2.550075000000000280e-04
-1.230037600000000002e-03
-1.648612900000000128e-03
-3.139780600000000206e-03
-1.282600000000000053e-05
-2.394093900000000222e-03
-1.282600000000000053e-05
5.844542000000000530e-04
-1.281390000000000110e-05
2.794204599999999990e-03
-1.278970000000000055e-05
3.375609600000000106e-03
4.157596300000000050e-03
3.788134900000000166e-03
1.263106900000000041e-03
-1.283810000000000165e-05
-6.171000000000000929e-07
-1.669606400000000048e-03
-1.285020000000000107e-05
-3.263841900000000271e-03
-1.275340000000000058e-05
-2.351622900000000134e-03
-3.369946800000000239e-03
-1.278970000000000055e-05
-1.386768900000000119e-03
9.710613000000000534e-04
2.287880099999999983e-03
-1.274130000000000115e-05
2.832259100000000199e-03
3.826104700000000115e-03
4.942341800000000542e-03
4.129088700000000181e-03
3.469953300000000115e-03
5.689056999999999968e-04
-4.164578000000000160e-04
-1.936810700000000203e-03
-1.991224400000000342e-03
-2.506079400000000169e-03
-3.292325300000000128e-03
-2.299121000000000107e-04
2.731683900000000248e-03
4.448552900000000455e-03
4.813779300000000337e-03
-1.280180000000000167e-05
3.349280000000000052e-03
4.436428699999999878e-03
-1.285020000000000107e-05
2.423956700000000353e-03
-1.277760000000000113e-05
3.580148000000000336e-04
-1.280180000000000167e-05
-1.213375900000000134e-03
-1.278970000000000055e-05
-3.945519599999999967e-03
-1.285020000000000107e-05
5.341061000000000463e-04
1.659430300000000035e-03
1.210000000000000082e-08
2.989655900000000224e-03
4.310697600000000691e-03
1.401579300000000122e-03
9.199630000000001229e-05
-1.285020000000000107e-05
-1.799439400000000036e-03
-2.163104900000000202e-03
-3.465101200000000447e-03
-1.547118100000000138e-03
2.380808100000000350e-03
-1.282600000000000053e-05
2.615995800000000138e-03
3.608534600000000252e-03
7.197806000000000386e-04
-1.288650000000000105e-05
0.000000000000000000e+00
-5.028880999999999803e-04
-1.282600000000000053e-05
0.000000000000000000e+00
0.000000000000000000e+00
-1.757343500000000140e-03
-1.283810000000000165e-05
0.000000000000000000e+00
-3.877687000000000321e-03
-2.575206700000000262e-03
-3.267169400000000026e-03
1.252967100000000047e-03
2.599418800000000314e-03
4.620094600000000142e-03
4.453973700000000632e-03
-1.278970000000000055e-05
6.373312000000000551e-04
3.955974000000000014e-04
-1.155646800000000030e-03
-2.777736500000000004e-03
-1.278970000000000055e-05
2.432100000000000313e-05
-2.509987700000000221e-03
-1.283810000000000165e-05
0.000000000000000000e+00
-2.643862100000000329e-03
-1.285020000000000107e-05
3.431318000000000475e-04
1.722108300000000074e-03
2.697489300000000065e-03
3.188156400000000286e-03
4.855814700000000636e-03
4.185970800000000068e-03
4.241945400000000574e-03
1.574548800000000106e-03
-1.522228400000000172e-03
-3.301981100000000308e-03
-2.423884100000000315e-03
-1.751959000000000198e-03
2.136049300000000210e-03
2.743723400000000132e-03
4.825903500000000047e-03
3.830702700000000304e-03
4.073380300000000245e-03
7.803653000000000889e-04
-1.771573100000000062e-03
-1.280180000000000167e-05
0.000000000000000000e+00
-3.497613900000000418e-03
-1.282600000000000053e-05
