0.000000000000000000e+00
-3.508298200000000040e-03
-1.183513100000000004e-03
1.698658500000000196e-03
3.488054900000000288e-03
3.573674500000000379e-03
1.782209000000000093e-03
-1.308844900000000070e-03
-3.236713700000000242e-03
-3.654357300000000107e-03
-2.355156100000000211e-03
9.218143000000000691e-04
2.981391600000000107e-03
3.684619400000000225e-03
2.779527300000000055e-03
-4.224715000000000089e-04
-2.661032000000000241e-03
-3.681957400000000161e-03
-3.174180900000000277e-03
-8.217110000000000343e-05
2.316956400000000360e-03
3.699429800000000445e-03
7.085639000000000347e-04
-1.280180000000000167e-05
-3.579555100000000357e-03
-1.285020000000000107e-05
1.625078400000000206e-03
-1.288650000000000105e-05
0.000000000000000000e+00
3.430519400000000066e-03
3.599435400000000358e-03
1.880594100000000223e-03
-3.181223100000000418e-03
-2.472526100000000098e-03
8.287290000000000541e-04
3.684958200000000399e-03
-1.281390000000000110e-05
2.845871600000000022e-03
7.917393000000000651e-04
7.612655710000000575e-02
-7.691960320000000573e-02
-3.683675600000000175e-03
-1.289860000000000048e-05
-3.238468200000000057e-03
-2.144846000000000166e-04
2.256093399999999950e-03
8.166290000000000311e-04
-1.914389400000000201e-03
-1.281390000000000110e-05
-3.563474200000000137e-03
-1.286230000000000050e-05
-1.446615500000000007e-03
-1.282600000000000053e-05
1.543391300000000179e-03
3.389948100000000301e-03
3.610712600000000067e-03
1.979850400000000149e-03
-3.139502300000000280e-03
-2.567547400000000021e-03
-1.285020000000000107e-05
7.173001000000000680e-04
-1.285020000000000107e-05
2.839095600000000018e-03
3.693053100000000429e-03
2.911477800000000261e-03
-2.055064000000000218e-04
-2.520926100000000190e-03
-3.696513700000000034e-03
-3.277055100000000106e-03
-3.471610999999999989e-04
2.170897300000000293e-03
9.485432000000001106e-04
-1.836199200000000016e-03
2.492834740000000188e-02
-1.609300000000000203e-06
-1.568329400000000170e-03
3.342370900000000197e-03
-1.283810000000000165e-05
2.094013900000000344e-03
-1.282600000000000053e-05
-1.052240200000000145e-03
-3.081107700000000268e-03
-1.281390000000000110e-05
-3.667389000000000066e-03
-2.672321300000000174e-03
6.362785000000000576e-04
2.781656900000000279e-03
3.699369300000000197e-03
2.998501000000000204e-03
-2.442263999999999980e-03
-3.674334400000000157e-03
-4.688387000000000348e-04
2.102447600000000114e-03
-1.277760000000000113e-05
3.654163700000000441e-03
-1.278970000000000055e-05
1.085902400000000054e-03
-1.743368000000000131e-03
-3.481545100000000420e-03
-3.589791700000000401e-03
-1.697811500000000196e-03
-1.287440000000000162e-05
1.398106600000000076e-03
3.301097800000000072e-03
3.645645300000000411e-03
2.213077900000000233e-03
-9.694157000000000772e-04
-3.024733800000000208e-03
-3.674915200000000454e-03
-2.766834400000000270e-03
5.432174000000000551e-04
3.698957900000000420e-03
3.051801499999999990e-03
1.314060000000000087e-05
-3.675471800000000306e-03
-3.362674700000000197e-03
-5.975101000000000240e-04
-1.281390000000000110e-05
2.035268399999999936e-03
3.628826300000000029e-03
3.469808100000000041e-03
1.193882800000000115e-03
-1.282600000000000053e-05
-1.675874200000000008e-03
-3.443466400000000198e-03
-3.614076400000000057e-03
-1.808417600000000085e-03
1.315415200000000185e-03
3.246986600000000087e-03
3.662161800000000422e-03
-8.686711000000000389e-04
-1.278970000000000055e-05
-2.960410200000000193e-03
4.316675000000000069e-04
-1.281390000000000110e-05
0.000000000000000000e+00
2.648399600000000270e-03
3.117903800000000267e-03
1.419571999999999967e-04
-2.306574600000000242e-03
-3.395635100000000180e-03
1.969323399999999957e-03
-1.278970000000000055e-05
0.000000000000000000e+00
0.000000000000000000e+00
3.627180700000000053e-03
3.502683800000000198e-03
-1.591670300000000210e-03
-3.621517900000000185e-03
-1.926537800000000140e-03
-1.282600000000000053e-05
1.230715200000000132e-03
-1.281390000000000110e-05
3.201998800000000010e-03
2.413357100000000123e-03
-1.285020000000000107e-05
-7.753075000000000981e-04
-2.905076900000000233e-03
-3.695545700000000405e-03
-2.934600900000000189e-03
3.346497000000000360e-04
2.585903100000000107e-03
3.730478400000000316e-03
3.185300800000000123e-03
-2.239891500000000101e-03
-1.278970000000000055e-05
-3.664134100000000348e-03
-3.433362900000000439e-03
-8.422084000000000254e-04
3.595115700000000095e-03
-1.287440000000000162e-05
1.451685400000000004e-03
-1.285020000000000107e-05
-1.518392700000000158e-03
-3.369995200000000263e-03
-3.637671400000000443e-03
-2.055185000000000171e-03
3.169425600000000225e-03
3.708904100000000315e-03
-1.285020000000000107e-05
-2.835610800000000400e-03
-1.286230000000000050e-05
0.000000000000000000e+00
-3.685732600000000362e-03
2.520829300000000141e-03
-7.929856000000000535e-04
3.171712500000000313e-03
3.252818800000000041e-03
3.839209000000000328e-04
-2.165585399999999956e-03
-3.481254700000000271e-03
-9.812132000000001620e-04
-1.281390000000000110e-05
1.834239000000000095e-03
3.575356400000000157e-03
3.586863500000000201e-03
1.576980900000000052e-03
-1.441690800000000085e-03
-2.176874700000000322e-03
-1.280180000000000167e-05
1.077843800000000043e-03
3.110014600000000125e-03
3.718922900000000246e-03
2.630987700000000235e-03
-5.840912000000000838e-04
-3.711868600000000316e-03
-1.283810000000000165e-05
0.000000000000000000e+00
2.469259100000000158e-03
-1.283810000000000165e-05
3.767189800000000054e-03
5.123987000000000853e-04
-2.105387900000000104e-03
-1.286230000000000050e-05
0.000000000000000000e+00
-3.661956100000000099e-03
-3.516005900000000305e-03
-1.109086000000000013e-03
1.768911100000000215e-03
3.559009300000000233e-03
3.614427300000000454e-03
1.695222100000000169e-03
-3.302682900000000234e-03
-1.283810000000000165e-05
-3.691431700000000465e-03
-2.296410600000000236e-03
3.061820300000000356e-03
3.741392600000000273e-03
2.732676100000000323e-03
-1.282600000000000053e-05
-4.783130000000000129e-04
-2.725125700000000355e-03
-3.716454500000000282e-03
-3.160810400000000145e-03
-4.017200000000000264e-06
2.396538100000000174e-03
3.758865000000000123e-03
3.352038800000000165e-03
6.202822999999999887e-04
-2.036018600000000320e-03
-3.550333600000000339e-03
-1.278970000000000055e-05
-1.235676200000000073e-03
1.694072600000000014e-03
3.510064800000000079e-03
3.639365400000000444e-03
1.825212400000000021e-03
-1.275969200000000130e-03
-3.241614200000000369e-03
-2.432874400000000371e-03
-1.283810000000000165e-05
8.894105000000000457e-04
2.981778800000000305e-03
3.729958100000000266e-03
-3.784759000000000062e-04
-2.652392600000000149e-03
-3.710077800000000266e-03
-1.277760000000000113e-05
-3.225049300000000334e-03
-1.281148000000000020e-04
3.733249300000000218e-03
9.680000000000000653e-08
-1.963382300000000164e-03
-3.578538700000000270e-03
-1.286230000000000050e-05
-1.363936200000000123e-03
-1.285020000000000107e-05
1.620746600000000153e-03
3.463879100000000037e-03
3.663432300000000422e-03
1.927941400000000209e-03
-3.184042400000000345e-03
-3.693791200000000156e-03
-1.283810000000000165e-05
-2.518227800000000325e-03
7.995196000000000421e-04
2.921351400000000119e-03
3.733442900000000318e-03
2.909384500000000272e-03
-2.631387000000000222e-04
-3.707282700000000351e-03
-1.280180000000000167e-05
-3.276510600000000044e-03
-2.687410000000000211e-04
2.242057400000000127e-03
3.726376500000000164e-03
3.431898800000000339e-03
-1.873237300000000138e-03
-1.286230000000000050e-05
-3.566087800000000176e-03
-3.597826100000000183e-03
1.526511800000000200e-03
3.674322300000000367e-03
-1.277760000000000113e-05
2.049957800000000094e-03
-1.278970000000000055e-05
-1.091807200000000045e-03
-3.701849800000000384e-03
-1.277760000000000113e-05
-2.612704600000000186e-03
7.106451000000000174e-04
2.864675000000000121e-03
3.763862300000000299e-03
2.986255799999999998e-03
-1.478741000000000213e-04
-2.509322200000000096e-03
-3.323603800000000334e-03
-1.282600000000000053e-05
-3.794560000000000207e-04
2.176064000000000123e-03
3.720725800000000087e-03
3.465512600000000224e-03
1.016654100000000116e-03
-1.798386700000000147e-03
-3.537592300000000096e-03
-1.619778600000000091e-03
1.457529700000000181e-03
3.378719300000000182e-03
-1.283810000000000165e-05
3.688951200000000277e-03
2.185804500000000129e-03
-1.004687200000000053e-03
-3.070350800000000175e-03
-3.695848200000000344e-03
-2.721519900000000242e-03
6.331567000000000835e-04
2.813334700000000039e-03
3.765774100000000412e-03
3.063816800000000295e-03
-4.405609999999999989e-05
-2.434834600000000075e-03
-3.360085300000000171e-03
2.100523700000000212e-03
-1.285020000000000107e-05
3.685151800000000064e-03
3.501364900000000172e-03
-1.278970000000000055e-05
-1.722483400000000050e-03
-3.632916100000000391e-03
-1.288650000000000105e-05
-1.744674800000000151e-03
3.314419900000000179e-03
3.707561000000000277e-03
2.285677900000000155e-03
-1.285020000000000107e-05
-9.139009000000000238e-04
-2.999590000000000329e-03
-3.687450800000000375e-03
-2.810491200000000099e-03
5.080669000000000331e-04
2.719571800000000327e-03
3.750274000000000055e-03
3.127789500000000347e-03
8.522030000000000805e-05
-2.355071399999999950e-03
-3.690451600000000179e-03
-6.398238000000000319e-04
2.046146300000000091e-03
-1.285020000000000107e-05
3.679985100000000234e-03
1.274117900000000048e-03
-1.634455900000000026e-03
-3.637683500000000233e-03
-1.860822700000000062e-03
-1.289860000000000048e-05
1.294869400000000061e-03
-1.287440000000000162e-05
3.263007000000000060e-03
3.715014600000000194e-03
2.382913500000000129e-03
-2.943796900000000133e-03
-1.285020000000000107e-05
-3.702019200000000038e-03
-2.881118900000000094e-03
2.652900799999999976e-03
3.763801800000000052e-03
-1.281390000000000110e-05
3.158487200000000255e-03
1.928498000000000115e-04
-2.283427300000000302e-03
-3.693742800000000132e-03
-7.573511000000000002e-04
1.958820600000000210e-03
3.643842400000000138e-03
-1.283810000000000165e-05
3.549607600000000401e-03
1.386623700000000044e-03
-1.558141200000000151e-03
-3.402386900000000172e-03
-1.975397600000000035e-03
-1.278970000000000055e-05
1.216122600000000024e-03
3.210710800000000139e-03
3.710694900000000365e-03
2.481371200000000079e-03
-7.357526000000000951e-04
-2.884954600000000109e-03
-2.965528499999999998e-03
-1.272920000000000003e-05
2.591190799999999999e-03
3.766125000000000375e-03
3.245970200000000434e-03
-2.204789400000000104e-03
-3.456219800000000231e-03
-8.776977000000001127e-04
-1.281390000000000110e-05
0.000000000000000000e+00
3.610640000000000030e-03
3.576711600000000418e-03
-1.285020000000000107e-05
0.000000000000000000e+00
1.501985100000000203e-03
-1.481390900000000054e-03
-3.644907200000000250e-03
-2.089343300000000118e-03
1.150286500000000101e-03
3.148758800000000038e-03
-1.285020000000000107e-05
3.709376000000000340e-03
2.570874900000000209e-03
-6.487052000000000313e-04
-2.817243000000000091e-03
-3.678242700000000209e-03
-3.040173400000000317e-03
3.283673800000000247e-03
-1.280180000000000167e-05
0.000000000000000000e+00
4.361808000000000438e-04
-2.134948200000000296e-03
-3.635130400000000442e-03
-1.285020000000000107e-05
-3.489773100000000301e-03
-1.003816000000000040e-03
1.820360300000000136e-03
3.596253100000000244e-03
1.607013100000000052e-03
-1.282600000000000053e-05
-3.303856600000000185e-03
-1.287440000000000162e-05
-3.648525100000000153e-03
1.074746199999999973e-03
3.107267900000000235e-03
3.734314100000000330e-03
-1.282600000000000053e-05
2.668582400000000208e-03
-3.694989100000000120e-03
-1.281390000000000110e-05
0.000000000000000000e+00
7.676240000000000895e-05
-1.277760000000000113e-05
3.756759600000000344e-03
-1.280180000000000167e-05
5.512760000000000663e-04
-2.068398200000000006e-03
-3.629068300000000153e-03
-1.281390000000000110e-05
-3.500384800000000320e-03
-1.119334700000000063e-03
1.746393000000000164e-03
3.529582100000000326e-03
1.731473700000000105e-03
-1.239040000000000084e-05
-3.246829300000000224e-03
-2.301262700000000338e-03
9.712307000000000318e-04
-1.283810000000000165e-05
3.027734600000000012e-03
3.720967800000000211e-03
2.752943600000000088e-03
-2.678044600000000289e-03
-3.146859100000000149e-03
2.377117599999999976e-03
-1.285020000000000107e-05
3.738149800000000345e-03
-1.283810000000000165e-05
3.347198800000000286e-03
-1.278970000000000055e-05
6.697108000000000661e-04
-3.574872400000000342e-03
-3.495024500000000391e-03
-1.283810000000000165e-05
-1.233340900000000177e-03
1.684295800000000206e-03
3.489543200000000400e-03
3.617512800000000084e-03
1.851614600000000112e-03
-1.249119300000000026e-03
-3.197437100000000056e-03
-3.638954000000000234e-03
-2.404778200000000279e-03
2.979346700000000143e-03
-1.283810000000000165e-05
2.834074100000000263e-03
-1.280180000000000167e-05
-2.619698400000000302e-03
-3.676149400000000220e-03
-1.282600000000000053e-05
-3.208387600000000249e-03
-1.490961999999999973e-04
3.716986900000000121e-03
-1.285020000000000107e-05
3.380098700000000022e-03
7.897186000000000049e-04
-1.928582700000000105e-03
-3.558694700000000072e-03
-1.372043200000000159e-03
-1.286230000000000050e-05
1.611030300000000160e-03
3.442304800000000036e-03
1.955626200000000307e-03
-1.288650000000000105e-05
-1.160704600000000020e-03
-3.150428600000000027e-03
-3.660988100000000037e-03
-2.517501800000000386e-03
7.934333000000000661e-04
2.909215100000000186e-03
3.729389400000000191e-03
-2.303598000000000234e-04
-2.544460600000000329e-03
-3.681412900000000099e-03
-3.241880400000000072e-03
2.244949300000000092e-03
-1.285020000000000107e-05
3.725481100000000139e-03
3.423682900000000248e-03
-1.837723800000000147e-03
-1.287440000000000162e-05
-3.537737500000000170e-03
-3.569233800000000054e-03
-1.499819200000000177e-03
1.518308000000000114e-03
-1.287440000000000162e-05
3.401455200000000345e-03
3.657321800000000109e-03
-1.071334000000000175e-03
-3.100286200000000342e-03
-3.667679400000000214e-03
-1.283810000000000165e-05
-2.608566400000000233e-03
2.837546800000000091e-03
-1.281390000000000110e-05
3.736951900000000382e-03
-2.480729899999999967e-03
-3.690342700000000340e-03
-1.285020000000000107e-05
-3.295810100000000180e-03
-1.282600000000000053e-05
-3.844291000000000223e-04
2.162633000000000177e-03
3.705625000000000151e-03
3.453098000000000365e-03
-3.575380600000000169e-03
-1.285020000000000107e-05
0.000000000000000000e+00
0.000000000000000000e+00
1.450051900000000034e-03
-1.281390000000000110e-05
3.687462900000000165e-03
-9.749091000000000744e-04
-3.038055900000000316e-03
-2.721181100000000068e-03
-1.280180000000000167e-05
2.786412200000000332e-03
3.747841900000000327e-03
-1.283810000000000165e-05
-2.779370000000000123e-05
-1.281390000000000110e-05
0.000000000000000000e+00
-2.422770900000000178e-03
-3.359347200000000443e-03
-5.179889000000000238e-04
-1.287440000000000162e-05
0.000000000000000000e+00
3.689217400000000414e-03
-1.278970000000000055e-05
1.163233500000000016e-03
-3.469045800000000301e-03
-1.277760000000000113e-05
0.000000000000000000e+00
-3.620695100000000197e-03
-1.760223300000000098e-03
3.315024900000000056e-03
2.308897800000000132e-03
-1.278970000000000055e-05
-2.989994700000000397e-03
-3.686579600000000363e-03
2.712106100000000186e-03
-1.283810000000000165e-05
0.000000000000000000e+00
0.000000000000000000e+00
0.000000000000000000e+00
3.758272100000000469e-03
3.144124500000000048e-03
-2.322292500000000277e-03
-1.282600000000000053e-05
-3.376795400000000280e-03
-1.281390000000000110e-05
2.027742199999999981e-03
-1.276550000000000170e-05
3.660358900000000148e-03
-3.436472600000000082e-03
-1.867017900000000202e-03
-1.281390000000000110e-05
0.000000000000000000e+00
3.257186900000000329e-03
3.711154700000000167e-03
-7.943771000000000079e-04
-2.927824900000000185e-03
-1.285020000000000107e-05
0.000000000000000000e+00
-3.688346200000000401e-03
-2.878408500000000005e-03
2.669260000000000122e-03
3.787529900000000289e-03
-1.283810000000000165e-05
2.120162000000000251e-04
-1.281390000000000110e-05
0.000000000000000000e+00
0.000000000000000000e+00
-2.275913200000000136e-03
-3.422025200000000048e-03
-1.277760000000000113e-05
-7.765659000000000927e-04
3.637731900000000258e-03
3.545529900000000262e-03
-1.539591900000000183e-03
-1.283810000000000165e-05
-3.385652600000000050e-03
-1.281390000000000110e-05
-3.625849700000000238e-03
-1.989203699999999957e-03
1.214331800000000190e-03
3.200474200000000095e-03
3.711420900000000304e-03
-7.069909000000000956e-04
-1.283810000000000165e-05
-3.675665400000000405e-03
-1.280180000000000167e-05
-2.977434900000000030e-03
2.575412400000000150e-03
-1.282600000000000053e-05
3.750649100000000465e-03
3.252129100000000338e-03
-2.166940600000000217e-03
-1.289860000000000048e-05
-3.450206100000000400e-03
-9.078751000000000789e-04
1.876468000000000060e-03
3.575598400000000281e-03
-1.283810000000000165e-05
0.000000000000000000e+00
1.525846300000000075e-03
-1.471565700000000004e-03
-3.647762800000000413e-03
-2.108255600000000056e-03
1.137569400000000086e-03
3.729631400000000315e-03
-1.287440000000000162e-05
2.608360700000000344e-03
-1.289860000000000048e-05
-6.102151000000000320e-04
-3.676923800000000183e-03
-1.287440000000000162e-05
-3.049986500000000361e-03
1.695088999999999992e-04
2.498553200000000214e-03
3.743171300000000101e-03
3.284883800000000433e-03
-2.119206100000000249e-03
-1.275340000000000058e-05
-3.629322400000000066e-03
-1.036921600000000098e-03
-1.283810000000000165e-05
3.564829400000000398e-03
1.634915700000000045e-03
-1.281390000000000110e-05
-1.390277900000000183e-03
-1.277760000000000113e-05
-3.656462700000000319e-03
-1.283810000000000165e-05
-2.226279000000000279e-03
1.029201800000000043e-03
3.076158800000000117e-03
3.728276200000000054e-03
-5.035414999999999900e-04
-2.723625300000000020e-03
-1.283810000000000165e-05
-3.105900600000000185e-03
-1.282600000000000053e-05
5.319160000000000077e-05
2.436395500000000224e-03
3.332037500000000103e-03
-1.281390000000000110e-05
5.703456000000000845e-04
-2.055596399999999949e-03
-3.620707200000000420e-03
-3.496924200000000281e-03
-1.148725600000000168e-03
1.729126300000000203e-03
3.607965900000000177e-03
-3.659015800000000110e-03
-1.283810000000000165e-05
0.000000000000000000e+00
0.000000000000000000e+00
-2.333690700000000048e-03
-1.283810000000000165e-05
3.026427800000000209e-03
-1.285020000000000107e-05
3.742735700000000311e-03
-2.675576200000000324e-03
-6.103240000000000200e-05
-1.287440000000000162e-05
0.000000000000000000e+00
3.729861300000000216e-03
-1.285020000000000107e-05
0.000000000000000000e+00
0.000000000000000000e+00
3.355535700000000440e-03
6.912004000000000238e-04
-1.977926500000000247e-03
-3.526399800000000213e-03
-1.281365800000000077e-03
3.477237500000000380e-03
-1.282600000000000053e-05
0.000000000000000000e+00
1.882929400000000119e-03
-1.212008600000000083e-03
-3.655785100000000405e-03
-1.281390000000000110e-05
0.000000000000000000e+00
-2.453432300000000284e-03
2.946277400000000320e-03
-1.282600000000000053e-05
3.722879600000000323e-03
-3.021127999999999986e-04
-1.283810000000000165e-05
-3.197618600000000366e-03
-1.285020000000000107e-05
2.312164800000000072e-03
-1.288650000000000105e-05
0.000000000000000000e+00
3.741973400000000137e-03
3.420827300000000085e-03
8.275674000000001092e-04
-1.906476000000000047e-03
-3.569149100000000227e-03
-1.416740600000000088e-03
-1.278970000000000055e-05
1.567107300000000194e-03
3.649505200000000438e-03
-1.285020000000000107e-05
1.980080300000000050e-03
-1.129861700000000038e-03
-3.655930300000000046e-03
-1.283810000000000165e-05
-2.539027700000000363e-03
7.653129000000000702e-04
2.883163800000000058e-03
3.737339100000000146e-03
-1.994322000000000249e-04
-1.283810000000000165e-05
-2.525923400000000367e-03
-3.694347800000000442e-03
-3.165239000000000138e-04
2.215994000000000210e-03
-1.277760000000000113e-05
3.729921800000000464e-03
3.439533900000000134e-03
-3.507269700000000164e-03
-1.276550000000000170e-05
-3.543618100000000149e-03
-1.282600000000000053e-05
-1.505881300000000032e-03
1.503981600000000142e-03
3.373806700000000266e-03
3.648682400000000450e-03
2.076335800000000172e-03
-3.069915200000000385e-03
-3.651610600000000217e-03
-1.281390000000000110e-05
-2.617435700000000226e-03
2.837462100000000265e-03
-1.278970000000000055e-05
3.032405200000000238e-03
-1.281390000000000110e-05
-4.170870000000000268e-05
-2.396187200000000211e-03
-3.293075500000000079e-03
-1.286230000000000050e-05
-4.311956000000000361e-04
3.674031900000000218e-03
-1.285020000000000107e-05
3.447326300000000225e-03
1.061291000000000014e-03
-1.746743900000000127e-03
-3.482997100000000297e-03
1.406588700000000088e-03
-1.281390000000000110e-05
0.000000000000000000e+00
3.678896100000000110e-03
2.242747100000000264e-03
-9.363101000000000193e-04
-1.280180000000000167e-05
-3.651368600000000093e-03
-1.280180000000000167e-05
5.723300000000000175e-04
2.733365800000000026e-03
-1.274130000000000115e-05
3.707911900000000240e-03
7.635100000000000811e-06
-1.281390000000000110e-05
-2.386253100000000106e-03
-3.668066600000000413e-03
-3.362759400000000024e-03
-5.737094000000000742e-04
3.650098100000000092e-03
-1.281390000000000110e-05
3.504474600000000249e-03
1.215033600000000116e-03
-1.635097200000000138e-03
-3.383837600000000421e-03
-3.531215600000000079e-03
1.392383300000000178e-03
-1.283810000000000165e-05
3.280830300000000307e-03
3.654768700000000318e-03
2.257593800000000286e-03
-9.078872000000000851e-04
-2.980435700000000267e-03
-3.679682600000000296e-03
-2.836748200000000115e-03
4.434529000000000313e-04
2.660656900000000265e-03
3.719697300000000210e-03
3.119755100000000132e-03
-2.294873900000000098e-03
-3.366244200000000075e-03
-1.287440000000000162e-05
0.000000000000000000e+00
3.617524900000000307e-03
-1.287440000000000162e-05
0.000000000000000000e+00
1.286326800000000018e-03
-1.281390000000000110e-05
-1.596619200000000145e-03
-3.612019400000000303e-03
-1.276550000000000170e-05
1.229214800000000014e-03
-1.281390000000000110e-05
3.201139700000000220e-03
3.674745800000000368e-03
-7.956839000000000273e-04
-1.283810000000000165e-05
-2.896619000000000017e-03
-3.651985700000000192e-03
-2.893799700000000089e-03
3.037705000000000353e-04
3.648307300000000041e-03
3.110353400000000299e-03
-1.283810000000000165e-05
2.159729000000000206e-04
-2.256395900000000322e-03
-3.662742600000000286e-03
-3.448512100000000399e-03
-8.952185000000000958e-04
1.407266300000000001e-03
-1.285020000000000107e-05
-1.515028900000000168e-03
-1.285020000000000107e-05
0.000000000000000000e+00
-3.595466600000000058e-03
1.150976200000000020e-03
-1.281390000000000110e-05
0.000000000000000000e+00
2.497790900000000040e-03
-1.287440000000000162e-05
-7.149406000000000511e-04
-1.283810000000000165e-05
-2.912191700000000411e-03
-3.144608500000000296e-03
-1.278970000000000055e-05
6.262960000000000087e-05
3.549317200000000252e-03
-1.282600000000000053e-05
3.082305600000000232e-03
-3.647375600000000214e-03
-1.281390000000000110e-05
-1.034114400000000177e-03
-1.281390000000000110e-05
0.000000000000000000e+00
3.439449200000000307e-03
-1.281390000000000110e-05
3.443672100000000087e-03
-1.513879400000000012e-03
-2.207003700000000155e-03
-1.278970000000000055e-05
0.000000000000000000e+00
1.015468300000000159e-03
3.041226100000000206e-03
-5.418743000000000171e-04
-2.715409400000000362e-03
-1.281390000000000110e-05
-3.032973900000000313e-03
1.092267000000000091e-04
-1.280180000000000167e-05
2.428240100000000380e-03
3.680227100000000359e-03
4.693832000000000429e-04
-2.103209900000000288e-03
-1.277760000000000113e-05
0.000000000000000000e+00
0.000000000000000000e+00
-3.495859400000000169e-03
-1.125953399999999986e-03
1.714642600000000150e-03
-1.278970000000000055e-05
3.539649300000000283e-03
-1.283810000000000165e-05
1.649375200000000085e-03
-1.331242000000000059e-03
-3.239775000000000293e-03
-3.642426700000000062e-03
-2.313895100000000309e-03
9.016073000000000099e-04
2.954457000000000177e-03
3.644011800000000224e-03
2.684844800000000305e-03
-4.919254999999999982e-04
-2.717526900000000363e-03
-3.690875100000000179e-03
-1.691580000000000159e-05
2.377141799999999989e-03
-1.278970000000000055e-05
3.751544500000000056e-03
3.358342900000000145e-03
7.115889000000000675e-04
-1.901478700000000088e-03
-3.503954300000000199e-03
-1.157957900000000130e-03
1.700558200000000086e-03
3.476705100000000107e-03
1.802137700000000118e-03
-1.278970000000000055e-05
0.000000000000000000e+00
-1.222003200000000003e-03
-3.142612000000000357e-03
-3.546739900000000448e-03
-2.297221300000000001e-03
9.653017000000000281e-04
3.047977900000000198e-03
3.799387900000000297e-03
-1.720741000000000132e-04
-2.363166299999999980e-03
-3.366837100000000162e-03
-1.278970000000000055e-05
1.586068000000000211e-04
-1.281390000000000110e-05
2.545549600000000020e-03
3.929063600000000205e-03
1.010374200000000149e-03
-1.280180000000000167e-05
-1.623989400000000081e-03
-3.190891000000000387e-03
-3.116197700000000043e-03
-9.782003000000001353e-04
1.877811100000000098e-03
3.632081200000000180e-03
3.786779700000000339e-03
2.131826399999999996e-03
-2.698433100000000116e-03
-3.109022400000000051e-03
-1.285020000000000107e-05
-1.961821400000000014e-03
3.160592600000000033e-03
-1.280180000000000167e-05
3.831392400000000441e-03
-1.694484000000000224e-04
-2.386579800000000057e-03
-3.436871900000000070e-03
-2.980968100000000107e-03
-4.210800000000000410e-05
-1.281390000000000110e-05
2.349263400000000009e-03
3.714082900000000367e-03
3.365421400000000087e-03
8.545625000000000703e-04
-1.835884600000000071e-03
-3.435589300000000280e-03
-3.426949900000000188e-03
-1.358926800000000157e-03
1.563053800000000068e-03
3.331662400000000128e-03
3.512726800000000142e-03
1.900631700000000087e-03
-1.146075700000000110e-03
-3.557871900000000084e-03
-1.282600000000000053e-05
-2.488328699999999959e-03
7.249594000000000914e-04
2.769556900000000148e-03
2.784258400000000095e-03
-1.282600000000000053e-05
-2.385757000000000069e-04
-2.476482800000000175e-03
-3.152981700000000252e-03
2.120089400000000051e-03
-1.281390000000000110e-05
0.000000000000000000e+00
3.537301900000000381e-03
3.230530600000000325e-03
8.557846000000000463e-04
-1.824825200000000040e-03
-3.423053700000000359e-03
-1.467560600000000120e-03
-1.289860000000000048e-05
1.453911800000000061e-03
3.218466900000000429e-03
3.417717600000000442e-03
1.907698100000000023e-03
-1.127163400000000173e-03
-3.551979200000000315e-03
-2.571770300000000235e-03
5.898145000000000904e-04
-1.285020000000000107e-05
3.485501800000000063e-03
2.787029299999999998e-03
-1.716506000000000130e-04
-1.281390000000000110e-05
-2.423170200000000166e-03
-3.578175700000000084e-03
-3.215175700000000043e-03
1.970460800000000106e-03
-1.286230000000000050e-05
3.442292700000000247e-03
9.336965000000000889e-04
-3.481097400000000407e-03
-1.281390000000000110e-05
-1.665093100000000119e-03
1.323994100000000030e-03
3.136658800000000340e-03
3.456728000000000058e-03
-9.865009000000000538e-04
-1.282600000000000053e-05
0.000000000000000000e+00
0.000000000000000000e+00
-2.936657900000000376e-03
-3.558053400000000394e-03
-2.710980800000000260e-03
4.665760000000000133e-04
2.520926100000000190e-03
2.803219100000000057e-03
-1.278970000000000055e-05
-1.152404000000000021e-04
-3.577413400000000344e-03
-3.231510700000000177e-03
-5.835951000000000463e-04
1.947361900000000191e-03
-1.286230000000000050e-05
3.231522800000000400e-03
-1.277760000000000113e-05
1.045924000000000159e-03
-1.697218600000000108e-03
-3.354688700000000440e-03
-3.477709400000000405e-03
-1.738963600000000042e-03
1.329560100000000064e-03
3.180158300000000306e-03
3.543860100000000273e-03
2.189724899999999971e-03
-9.348944000000000525e-04
-2.886079900000000035e-03
-3.484134500000000446e-03
-2.676411100000000102e-03
3.967469000000000486e-04
2.450927600000000085e-03
3.433798500000000229e-03
2.845411800000000220e-03
6.098400000000000768e-06
-2.319775700000000287e-03
-3.590191000000000389e-03
-3.269383700000000077e-03
-6.696503000000000351e-04
1.943030100000000138e-03
3.511795100000000315e-03
3.354398300000000291e-03
-1.640711600000000197e-03
-1.286230000000000050e-05
-3.373637300000000179e-03
-3.540484200000000060e-03
-1.913711800000000070e-03
3.093594900000000165e-03
2.297535900000000162e-03
-8.505332000000000647e-04
-1.283810000000000165e-05
0.000000000000000000e+00
-2.906565200000000345e-03
-2.885837900000000344e-03
-1.282600000000000053e-05
2.533497999999999913e-04
2.416309500000000336e-03
3.496077200000000280e-03
2.951081100000000398e-03
1.681174000000000177e-04
-2.221039699999999978e-03
-3.571508600000000352e-03
-3.316706800000000267e-03
1.787484600000000196e-03
3.385991400000000224e-03
3.304437400000000049e-03
1.328023400000000144e-03
-1.509717000000000047e-03
-3.231764800000000090e-03
-3.432770000000000352e-03
1.103326400000000096e-03
2.954977300000000227e-03
2.328027900000000181e-03
-1.285020000000000107e-05
0.000000000000000000e+00
-7.614772000000000554e-04
-1.278970000000000055e-05
-2.798270200000000339e-03
-3.579046900000000097e-03
-2.931612200000000175e-03
1.760308000000000087e-04
2.365949300000000106e-03
3.514336100000000317e-03
3.033518400000000375e-03
3.298944000000000377e-04
-3.468089900000000027e-03
-3.300238700000000282e-03
-9.794587000000001299e-04
1.705507100000000021e-03
3.335292400000000254e-03
3.345686300000000162e-03
1.439718500000000158e-03
-3.214437600000000315e-03
-1.282600000000000053e-05
-3.482815600000000421e-03
-1.283810000000000165e-05
-2.070382600000000156e-03
1.073584600000000028e-03
2.977906800000000055e-03
3.544489300000000162e-03
2.521918300000000265e-03
-5.733463999999999965e-04
-3.576348600000000232e-03
-3.003244200000000034e-03
3.283940000000000275e-05
3.503893800000000384e-03
4.231733000000000434e-04
-2.054894600000000023e-03
-3.484364400000000347e-03
-3.331420400000000438e-03
-1.283810000000000165e-05
-1.076791100000000154e-03
-1.283810000000000165e-05
1.652884200000000149e-03
-1.285020000000000107e-05
3.317977300000000268e-03
3.364380800000000421e-03
1.535828800000000206e-03
-1.377718100000000032e-03
-3.189100200000000336e-03
-3.531276100000000327e-03
9.089036000000000641e-04
2.857318200000000252e-03
3.491939000000000327e-03
-1.281390000000000110e-05
-5.169604000000000386e-04
-2.630019700000000172e-03
-1.287440000000000162e-05
-2.992269500000000262e-03
-3.656620000000000237e-05
2.229049900000000181e-03
3.511057000000000154e-03
3.097563700000000031e-03
5.528974000000000302e-04
-1.986384400000000029e-03
-1.280180000000000167e-05
-3.468331900000000152e-03
-1.196036600000000135e-03
1.620419900000000203e-03
-1.287440000000000162e-05
3.345020800000000037e-03
3.463528200000000074e-03
1.756714300000000034e-03
-1.248623199999999989e-03
-3.125575200000000296e-03
-2.352070600000000147e-03
8.242883000000000545e-04
-1.283810000000000165e-05
2.793926300000000064e-03
2.624925600000000379e-03
-4.221569000000000103e-04
-3.574703000000000255e-03
-3.099100400000000168e-03
-1.802900000000000238e-04
2.168695100000000032e-03
-1.281390000000000110e-05
3.504595600000000311e-03
3.147524600000000273e-03
-1.278970000000000055e-05
6.757366000000000110e-04
-1.923464400000000083e-03
-3.459414200000000134e-03
-3.411050500000000277e-03
1.519772099999999997e-03
3.414402200000000043e-03
1.815774400000000170e-03
-3.065063100000000283e-03
-3.520507100000000444e-03
-2.437871700000000114e-03
2.785202200000000145e-03
-1.285020000000000107e-05
3.552947200000000378e-03
-1.278970000000000055e-05
-2.511923700000000346e-03
-1.277760000000000113e-05
-3.579809200000000271e-03
-1.282600000000000053e-05
-3.156865800000000291e-03
-1.281390000000000110e-05
-3.041577000000000169e-04
2.104686100000000178e-03
-1.287440000000000162e-05
3.495121300000000441e-03
3.197388700000000031e-03
8.117043000000001085e-04
-1.847899900000000159e-03
-3.425715700000000422e-03
-3.433798500000000229e-03
-1.478002900000000052e-03
1.437891400000000089e-03
3.204818100000000371e-03
3.435081100000000019e-03
1.917559600000000091e-03
-1.104717900000000159e-03
-3.527101600000000139e-03
-1.281390000000000110e-05
-2.525463600000000131e-03
2.686466200000000269e-03
3.526085200000000051e-03
-1.280180000000000167e-05
2.801476700000000031e-03
-1.686861000000000111e-04
-2.413732200000000098e-03
-3.549002600000000091e-03
-3.144959400000000259e-03
-4.029784000000000447e-04
2.058742400000000260e-03
3.245849200000000372e-03
9.493418000000000863e-04
-1.747240000000000164e-03
-1.287440000000000162e-05
-3.418685600000000071e-03
1.382267700000000196e-03
-1.283810000000000165e-05
3.180642300000000120e-03
3.462427100000000160e-03
-1.283810000000000165e-05
-9.930349000000001508e-04
-2.935798800000000153e-03
-1.282600000000000053e-05
-3.512303300000000142e-03
-2.602274400000000043e-03
5.698737000000000594e-04
2.635029100000000138e-03
3.546497900000000324e-03
2.872128600000000039e-03
-5.332470000000000124e-05
-2.331863600000000196e-03
-3.533938100000000391e-03
-3.174943200000000017e-03
1.996221700000000085e-03
-1.285020000000000107e-05
3.279390400000000219e-03
1.087148700000000042e-03
-1.662443200000000062e-03
-1.285020000000000107e-05
-3.324099900000000371e-03
-3.419036500000000034e-03
-1.699251400000000066e-03
1.310672000000000139e-03
3.471175400000000091e-03
-1.286230000000000050e-05
-9.004094000000000464e-04
-1.282600000000000053e-05
-2.867421700000000011e-03
-3.501812600000000185e-03
-2.695867900000000102e-03
4.687419000000000394e-04
2.568503300000000295e-03
3.536273400000000070e-03
2.941788300000000404e-03
6.756640000000001093e-05
-3.509919600000000438e-03
-1.281390000000000110e-05
-3.218854100000000194e-03
1.913760200000000095e-03
3.446092100000000026e-03
-1.283810000000000165e-05
3.306688000000000335e-03
1.200186900000000095e-03
-1.587749900000000151e-03
-3.441506200000000060e-03
-1.281390000000000110e-05
-1.814395000000000114e-03
1.232784300000000109e-03
3.073194300000000115e-03
3.487558800000000250e-03
2.271327300000000170e-03
-7.939536000000000076e-04
-3.498243100000000307e-03
-1.278970000000000055e-05
-2.768564700000000073e-03
3.503918000000000288e-04
3.545590400000000076e-03
2.162996000000000254e-04
-1.289860000000000048e-05
-2.168065900000000143e-03
-1.281390000000000110e-05
-3.496065100000000057e-03
-7.955024000000000426e-04
1.833549300000000175e-03
3.410421300000000388e-03
-1.282600000000000053e-05
3.323821600000000012e-03
-1.512221700000000030e-03
-1.278970000000000055e-05
-3.241686800000000406e-03
-3.456970000000000182e-03
-1.938008600000000166e-03
1.130454600000000125e-03
3.015598300000000079e-03
3.501933600000000247e-03
2.391613400000000035e-03
-6.643747000000000411e-04
-2.706528000000000145e-03
-2.815948300000000078e-03
2.553342000000000328e-04
-1.281390000000000110e-05
2.439614100000000139e-03
3.581043400000000036e-03
3.061408900000000145e-03
3.562724000000000077e-04
-2.074145700000000134e-03
-3.464072700000000136e-03
-3.246369500000000421e-03
-8.887208000000000174e-04
1.793655600000000107e-03
3.420476400000000122e-03
1.486835900000000026e-03
-1.386405900000000149e-03
-1.282600000000000053e-05
-3.159479400000000330e-03
-2.034239900000000059e-03
-1.281390000000000110e-05
2.992245300000000250e-03
3.541609500000000420e-03
-1.283810000000000165e-05
-5.690630000000000775e-04
-1.285020000000000107e-05
-3.484836300000000373e-03
-1.281390000000000110e-05
1.543718000000000184e-04
-1.283810000000000165e-05
3.572101500000000440e-03
3.118061100000000131e-03
-2.011370900000000045e-03
-5.075107840000000342e-02
-1.429010000000000062e-05
-3.284799100000000173e-03
1.729235200000000042e-03
3.382724400000000284e-03
-1.285020000000000107e-05
3.418310500000000095e-03
1.609457300000000004e-03
-1.313709100000000178e-03
-3.111781200000000164e-03
-3.447882900000000077e-03
-2.159075600000000088e-03
9.933495000000000952e-04
2.924763600000000133e-03
3.537543900000000071e-03
2.599576100000000178e-03
-4.709078000000000114e-04
-3.491430800000000067e-03
3.410990000000000354e-05
2.315008300000000012e-03
-1.283810000000000165e-05
0.000000000000000000e+00
3.171095400000000213e-03
-1.278970000000000055e-05
6.062584000000000636e-04
-1.935261900000000059e-03
-3.416991600000000070e-03
-3.314323100000000129e-03
-1.139759500000000125e-03
1.659744900000000196e-03
3.350816700000000189e-03
3.450448100000000091e-03
1.722011500000000025e-03
-1.230739400000000145e-03
-3.082341900000000034e-03
-3.498412500000000393e-03
-2.306671400000000292e-03
8.464797000000000467e-04
2.815645800000000139e-03
3.513961000000000341e-03
2.641599400000000254e-03
-3.943027000000000424e-04
-2.536498800000000151e-03
-3.533478300000000155e-03
-3.023306000000000344e-03
-1.107271000000000058e-04
2.242359900000000066e-03
3.586113300000000250e-03
3.223875600000000383e-03
7.441742000000000756e-04
-1.843096200000000082e-03
-3.382058900000000159e-03
-3.320131100000000071e-03
-1.252180600000000078e-03
1.590411900000000215e-03
3.328492200000000237e-03
3.477128600000000107e-03
-1.137654100000000130e-03
-3.014545600000000190e-03
-3.463673400000000149e-03
-1.281390000000000110e-05
8.109057000000000244e-04
2.815186000000000337e-03
3.573226800000000366e-03
-1.289860000000000048e-05
2.785238500000000381e-03
-2.320054000000000268e-04
-2.425445000000000031e-03
-3.480552900000000345e-03
-1.956086000000000164e-04
-1.285020000000000107e-05
2.196730800000000310e-03
3.582180800000000186e-03
3.269238500000000436e-03
8.820174000000000503e-04
-3.345287000000000174e-03
-3.336901700000000429e-03
-1.281390000000000110e-05
-1.389648700000000077e-03
3.281471600000000419e-03
-1.280180000000000167e-05
3.503458200000000161e-03
1.998266600000000049e-03
-1.036800600000000036e-03
-2.945672400000000010e-03
7.052969000000000946e-04
-1.283810000000000165e-05
2.729263900000000308e-03
-1.285020000000000107e-05
2.844697900000000071e-03
-1.280180000000000167e-05
-2.369772900000000331e-03
-3.499937100000000308e-03
-3.125067000000000036e-03
-1.283810000000000165e-05
-3.779193000000000461e-04
2.085120400000000339e-03
3.524959900000000125e-03
3.278240900000000280e-03
-1.721914700000000192e-03
-1.282600000000000053e-05
-3.335014100000000328e-03
-3.399591800000000257e-03
1.417938500000000051e-03
3.213336500000000401e-03
-1.285020000000000107e-05
2.101322300000000188e-03
-9.393956000000000832e-04
-1.278970000000000055e-05
-2.877997100000000228e-03
-3.457296700000000132e-03
6.101546000000000010e-04
-1.276550000000000170e-05
2.691282000000000136e-03
3.606659100000000374e-03
2.932749600000000324e-03
-2.279083400000000027e-03
-1.275340000000000058e-05
-3.486360900000000287e-03
-3.120832000000000033e-03
-4.705206000000000297e-04
2.051409799999999971e-03
3.548821100000000214e-03
1.131350000000000151e-03
7.866573000000000619e-04
-3.279741300000000182e-03
-1.285020000000000107e-05
-3.381732200000000209e-03
-1.649447800000000122e-03
1.352961500000000135e-03
3.172789400000000214e-03
2.203664100000000178e-03
-2.838805200000000303e-03
-1.281390000000000110e-05
-3.492144700000000216e-03
-2.665085500000000367e-03
2.590585800000000122e-03
3.582761600000000050e-03
-1.283810000000000165e-05
0.000000000000000000e+00
2.950730200000000001e-03
9.302480000000001100e-05
-2.247998500000000354e-03
-3.522394700000000111e-03
-3.198937500000000392e-03
-6.287039000000000776e-04
1.951161300000000187e-03
3.499477300000000072e-03
1.251115800000000182e-03
-1.551099000000000011e-03
-3.399603900000000047e-03
-1.775929100000000127e-03
1.281740900000000053e-03
-1.282600000000000053e-05
3.136937100000000266e-03
3.545638800000000101e-03
-1.278970000000000055e-05
2.333351900000000308e-03
-7.526079000000000623e-04
-2.754794900000000386e-03
-2.724448100000000008e-03
4.193134000000000162e-04
-1.278970000000000055e-05
2.553922799999999976e-03
3.605739500000000337e-03
3.054245700000000376e-03
2.434399000000000068e-04
-2.130277600000000070e-03
-3.201974600000000431e-03
-7.333689000000000657e-04
1.907298800000000035e-03
-1.277760000000000113e-05
3.481484600000000172e-03
1.389878600000000195e-03
-1.457142500000000200e-03
-3.410893200000000413e-03
3.072323100000000102e-03
-1.283810000000000165e-05
-6.542712000000000657e-04
-1.280180000000000167e-05
0.000000000000000000e+00
0.000000000000000000e+00
0.000000000000000000e+00
-2.698191099999999992e-03
-1.286230000000000050e-05
-3.470267900000000277e-03
2.743070000000000013e-04
2.470130300000000171e-03
3.600137200000000284e-03
-1.281390000000000110e-05
-2.069281500000000242e-03
-1.282600000000000053e-05
0.000000000000000000e+00
-3.445124100000000397e-03
-8.584103000000000913e-04
-1.285020000000000107e-05
1.829132800000000079e-03
3.450847400000000079e-03
1.502178700000000085e-03
-1.373374200000000191e-03
-3.145056200000000309e-03
-3.418600900000000244e-03
1.098123400000000031e-03
-1.278970000000000055e-05
0.000000000000000000e+00
3.007104100000000061e-03
3.555621300000000231e-03
2.505740599999999995e-03
-5.722936999999999989e-04
-2.647915600000000022e-03
-2.887580300000000370e-03
-1.280180000000000167e-05
1.497254000000000217e-04
2.389737900000000158e-03
3.128455000000000038e-03
-1.277760000000000113e-05
-1.998665900000000037e-03
-1.278970000000000055e-05
-3.426223900000000249e-03
-3.260526500000000306e-03
1.756169800000000189e-03
3.435395700000000180e-03
1.636016800000000175e-03
-1.293030199999999985e-03
-1.283810000000000165e-05
-3.097854100000000180e-03
-1.281390000000000110e-05
-3.427252400000000126e-03
-2.137331900000000000e-03
1.016291100000000147e-03
2.950585000000000360e-03
2.615947400000000114e-03
-1.282600000000000053e-05
-4.528667000000000326e-04
-2.557322900000000201e-03
-3.469021600000000288e-03
-2.933814400000000003e-03
6.323459999999999932e-05
2.343019800000000277e-03
3.195392200000000092e-03
6.334834000000000341e-04
-1.283810000000000165e-05
-1.916676300000000072e-03
-3.397522700000000281e-03
-3.292301100000000116e-03
3.370878500000000066e-03
-1.283810000000000165e-05
0.000000000000000000e+00
3.475011100000000106e-03
1.761155000000000142e-03
-1.206539400000000099e-03
-3.437368000000000107e-03
-1.281390000000000110e-05
-2.240496499999999978e-03
9.308772000000000530e-04
2.892117800000000311e-03
3.578526600000000047e-03
2.713279800000000137e-03
-3.389694000000000279e-04
-2.490034800000000183e-03
-3.495581100000000243e-03
-3.019119400000000366e-03
-1.128204000000000083e-04
3.558646300000000047e-03
-1.283810000000000165e-05
3.199832900000000417e-03
7.245600999999999951e-04
-3.391291200000000339e-03
-3.326398900000000249e-03
-1.245440900000000092e-03
-1.283810000000000165e-05
1.617261800000000102e-03
3.343326800000000036e-03
3.500566300000000197e-03
1.875669400000000084e-03
-1.110150800000000125e-03
-2.981778800000000305e-03
-3.432189200000000055e-03
-2.343261799999999968e-03
8.215053000000000372e-04
2.816154000000000400e-03
3.580148000000000445e-03
2.770137700000000012e-03
-2.421815000000000339e-03
-3.495956200000000218e-03
-1.282600000000000053e-05
-2.138191000000000278e-04
3.588630100000000239e-03
4.840000000000000326e-08
-3.655180100000000095e-03
8.910924000000000405e-04
-1.759412600000000116e-03
-3.337422000000000045e-03
-3.327911400000000373e-03
-1.386345400000000118e-03
1.525822100000000063e-03
3.285125800000000124e-03
3.502562800000000136e-03
1.997637400000000160e-03
-2.927280400000000123e-03
-1.285020000000000107e-05
-3.443018700000000185e-03
-2.453420200000000061e-03
7.323162000000000681e-04
2.757263300000000351e-03
-1.101947000000000039e-04
-2.345512400000000254e-03
-1.283810000000000165e-05
-3.479802700000000394e-03
-3.082789600000000046e-03
-1.287440000000000162e-05
3.559916800000000048e-03
-1.281390000000000110e-05
3.293111800000000314e-03
1.008849600000000018e-03
-1.695343100000000014e-03
-3.313984300000000389e-03
-3.355136400000000019e-03
-1.528096900000000145e-03
-1.277760000000000113e-05
1.451407100000000078e-03
3.523895100000000447e-03
2.117778299999999950e-03
-1.283810000000000165e-05
-9.421544000000000880e-04
-2.881215700000000143e-03
-2.561219100000000030e-03
-1.283810000000000165e-05
6.212019000000000265e-04
3.590953300000000129e-03
-1.278970000000000055e-05
8.264299999999999801e-06
-1.278970000000000055e-05
-2.270843300000000356e-03
-3.116790600000000130e-03
-4.560369000000000315e-04
-1.281390000000000110e-05
2.069136300000000168e-03
3.555657600000000033e-03
3.355317900000000329e-03
1.148955500000000069e-03
-3.261228300000000233e-03
-3.372306300000000364e-03
-1.282600000000000053e-05
-1.629579600000000128e-03
1.374632600000000185e-03
3.542287100000000334e-03
-1.286230000000000050e-05
2.225202099999999943e-03
-3.452577700000000315e-03
-1.282600000000000053e-05
-2.625324900000000367e-03
5.228289000000000113e-04
-1.285020000000000107e-05
2.628858100000000010e-03
3.617972600000000320e-03
1.389564000000000034e-04
-2.194964200000000271e-03
-1.281390000000000110e-05
-3.472167600000000166e-03
-3.157434500000000366e-03
-5.978730999999999933e-04
1.984266900000000028e-03
3.525310800000000088e-03
3.369281300000000114e-03
1.262296200000000059e-03
-1.531593800000000203e-03
-3.229780400000000374e-03
-3.385797800000000125e-03
-1.757960600000000023e-03
1.286254199999999981e-03
3.143652600000000023e-03
2.341325800000000276e-03
-1.282600000000000053e-05
-7.336351000000000937e-04
-2.740166000000000043e-03
-3.452807600000000216e-03
-2.713316100000000373e-03
4.137111000000000174e-04
3.619521400000000246e-03
-1.285020000000000107e-05
3.059787500000000181e-03
2.576332000000000188e-04
-3.452214700000000129e-03
-7.150737000000000109e-04
-1.281390000000000110e-05
0.000000000000000000e+00
1.916325400000000109e-03
3.501715800000000135e-03
3.407154300000000014e-03
1.409274900000000164e-03
-3.172801500000000004e-03
-3.389754500000000201e-03
-1.891278400000000063e-03
-1.283810000000000165e-05
1.210786500000000107e-03
3.078857100000000416e-03
3.560412900000000085e-03
2.450649300000000159e-03
-6.449663000000000661e-04
-2.682001300000000366e-03
-3.460261200000000134e-03
-2.808918200000000160e-03
3.022701000000000250e-04
2.488897400000000034e-03
3.613423000000000156e-03
3.118811300000000081e-03
3.883858000000000449e-04
-2.044948400000000128e-03
-3.421541200000000234e-03
-3.222617200000000171e-03
1.842394400000000156e-03
3.455130800000000106e-03
3.433992100000000328e-03
1.526826400000000144e-03
-1.364008800000000160e-03
-3.412308900000000055e-03
-1.283810000000000165e-05
-2.006506700000000153e-03
3.019797000000000280e-03
-1.281390000000000110e-05
0.000000000000000000e+00
3.574763500000000069e-03
2.545174500000000044e-03
-5.252852000000000779e-04
-3.458700300000000418e-03
-2.857741700000000253e-03
-1.289860000000000048e-05
1.667985000000000192e-04
3.614850800000000454e-03
-1.283810000000000165e-05
3.149254900000000076e-03
-1.981459700000000324e-03
-1.283810000000000165e-05
-3.418201600000000256e-03
-9.880375999999999742e-04
-1.278970000000000055e-05
1.769552400000000110e-03
3.425752000000000224e-03
1.653029400000000006e-03
-1.266531200000000062e-03
-3.069358600000000100e-03
-1.278970000000000055e-05
-3.407989200000000225e-03
-2.111195900000000045e-03
1.025438700000000066e-03
2.961946900000000330e-03
-4.175831000000000508e-04
-1.281390000000000110e-05
0.000000000000000000e+00
-2.533304400000000248e-03
-3.471961900000000278e-03
-2.919125000000000279e-03
4.401980000000000161e-05
2.340999100000000326e-03
3.191992100000000301e-03
6.434901000000000683e-04
-1.283810000000000165e-05
-1.904552100000000145e-03
-3.396252200000000280e-03
-3.279245200000000145e-03
-1.132269599999999972e-03
1.685058100000000163e-03
3.384805600000000050e-03
3.473196100000000043e-03
-1.181468200000000040e-03
-1.283810000000000165e-05
-3.019530800000000143e-03
-2.246740100000000143e-03
-1.285020000000000107e-05
9.324018000000000757e-04
2.896026100000000363e-03
3.587069200000000090e-03
2.729445400000000185e-03
-2.470384400000000084e-03
-1.277760000000000113e-05
-2.986038000000000320e-03
-7.487480000000000351e-05
-1.277760000000000113e-05
2.267007600000000341e-03
3.604142300000000385e-03
-1.816706100000000214e-03
-3.356685200000000379e-03
-1.285020000000000107e-05
0.000000000000000000e+00
-3.304219600000000371e-03
-1.265188100000000024e-03
1.608743400000000072e-03
3.335570700000000180e-03
3.498981200000000034e-03
1.909864000000000049e-03
-1.101886500000000008e-03
-3.429345700000000115e-03
-2.350243500000000294e-03
-1.288650000000000105e-05
8.299148000000000115e-04
2.828967900000000247e-03
2.814205900000000052e-03
-1.287440000000000162e-05
-2.003397000000000023e-04
-2.399490499999999953e-03
-3.036156199999999993e-03
-1.280180000000000167e-05
2.194334999999999949e-03
3.588267100000000053e-03
-1.281390000000000110e-05
3.280443100000000108e-03
-1.741928100000000043e-03
-1.278970000000000055e-05
-3.325479300000000211e-03
-3.329871600000000077e-03
-1.388414500000000095e-03
1.525555900000000143e-03
3.291587200000000400e-03
2.014783100000000059e-03
-1.285020000000000107e-05
-1.001323400000000063e-03
-3.439788000000000047e-03
-1.286230000000000050e-05
-2.449899100000000208e-03
7.187158000000000348e-04
2.759804300000000352e-03
-7.416090000000000345e-05
-1.281390000000000110e-05
0.000000000000000000e+00
-3.472131300000000365e-03
-3.067059600000000223e-03
-3.314674000000000309e-04
-1.278970000000000055e-05
2.129660499999999970e-03
3.589743300000000376e-03
-1.658764800000000128e-03
-1.281390000000000110e-05
0.000000000000000000e+00
-3.286856100000000360e-03
-3.339382200000000182e-03
-1.520498100000000153e-03
1.445260300000000180e-03
3.246696200000000372e-03
3.532982200000000118e-03
-9.087826000000001105e-04
-2.854498900000000325e-03
6.197499000000000410e-04
-1.285020000000000107e-05
0.000000000000000000e+00
2.688644200000000085e-03
-1.286230000000000050e-05
2.958450000000000055e-03
3.414620000000000182e-05
-1.283810000000000165e-05
-2.249365799999999971e-03
-3.455747900000000206e-03
-3.114540000000000277e-03
-4.679191000000000513e-04
2.053999199999999997e-03
3.558452700000000381e-03
3.360714500000000059e-03
1.181347199999999978e-03
-1.580828700000000073e-03
-3.244869100000000086e-03
-3.363037700000000383e-03
-1.652751100000000081e-03
1.366186800000000192e-03
3.187575600000000422e-03
3.551083800000000290e-03
-8.136161000000000044e-04
-2.782903200000000268e-03
-1.277760000000000113e-05
-3.437997200000000430e-03
2.582987000000000347e-04
2.623655100000000379e-03
3.032489900000000065e-03
1.669800000000000039e-04
-2.170014000000000057e-03
-3.444144000000000112e-03
-1.982464000000000134e-04
-6.074079000000000023e-04
1.986094000000000314e-03
-1.283810000000000165e-05
3.524621100000000385e-03
3.399204600000000059e-03
1.304912400000000005e-03
-1.502953100000000049e-03
-3.202095600000000059e-03
-3.382313000000000073e-03
-1.775662900000000207e-03
3.131818800000000028e-03
3.563401600000000100e-03
-1.285020000000000107e-05
2.357007400000000075e-03
-2.720515600000000377e-03
-1.278970000000000055e-05
-3.453654600000000217e-03
3.926571000000000119e-04
2.548332600000000146e-03
-1.287440000000000162e-05
3.633012900000000441e-03
3.071875400000000089e-03
-2.098115800000000062e-03
-1.282600000000000053e-05
-1.585971200000000107e-03
-7.404595000000000144e-04
1.904794100000000052e-03
3.499670900000000171e-03
1.427473300000000169e-03
-1.285020000000000107e-05
-3.163351400000000146e-03
-1.281390000000000110e-05
-1.907468200000000122e-03
1.188316800000000081e-03
3.075227100000000290e-03
3.573529300000000304e-03
-1.278970000000000055e-05
2.471642800000000296e-03
-6.133369000000000060e-04
-3.455989900000000330e-03
-2.801331500000000391e-03
2.866369000000000338e-04
-1.281390000000000110e-05
2.477898500000000250e-03
3.628281800000000400e-03
3.128503400000000063e-03
4.145460000000000117e-04
-2.025176999999999967e-03
-8.834331000000000171e-04
-1.283810000000000165e-05
0.000000000000000000e+00
1.826313500000000152e-03
3.461858400000000086e-03
-3.110776900000000299e-03
-1.283810000000000165e-05
0.000000000000000000e+00
0.000000000000000000e+00
-3.398260800000000442e-03
-2.033078300000000331e-03
1.108226900000000006e-03
3.017522200000000415e-03
2.579296500000000190e-03
-1.281390000000000110e-05
-5.104627000000000686e-04
-2.588698200000000022e-03
-3.450907900000000327e-03
-2.878251200000000141e-03
1.639913000000000167e-04
3.185470200000000210e-03
-1.286230000000000050e-05
0.000000000000000000e+00
-1.948051600000000111e-03
-3.394534000000000266e-03
-1.280180000000000167e-05
-3.261022600000000344e-03
1.753991800000000156e-03
3.418358900000000120e-03
1.681403900000000024e-03
-1.281390000000000110e-05
-1.256040500000000105e-03
-3.426720000000000287e-03
-2.143381900000000066e-03
-1.281390000000000110e-05
1.002993200000000052e-03
2.947656800000000160e-03
3.582967300000000372e-03
2.655357100000000151e-03
-4.025791000000000027e-04
-3.464387300000000298e-03
-2.936173900000000128e-03
2.509540000000000032e-05
2.328874900000000182e-03
-1.285020000000000107e-05
3.614741900000000181e-03
-1.879783400000000024e-03
-3.387310300000000250e-03
-1.282600000000000053e-05
0.000000000000000000e+00
-3.288138700000000150e-03
-1.143667800000000177e-03
1.667815600000000214e-03
3.373431600000000290e-03
3.487655600000000300e-03
1.802331300000000218e-03
-1.161370100000000145e-03
-3.005712599999999998e-03
-3.419363200000000418e-03
-2.256940399999999951e-03
2.880901099999999982e-03
3.599157100000000432e-03
2.743142600000000268e-03
-2.850276000000000220e-04
-2.446644200000000057e-03
-9.741710000000001297e-05
-1.281390000000000110e-05
0.000000000000000000e+00
0.000000000000000000e+00
2.257630100000000088e-03
3.608159500000000276e-03
3.255698600000000217e-03
8.094779000000000514e-04
-1.800697800000000031e-03
-3.348590300000000349e-03
-1.278933700000000132e-03
1.589020400000000152e-03
-1.282600000000000053e-05
3.330984800000000214e-03
3.498981200000000034e-03
1.938565200000000235e-03
-1.074625200000000128e-03
-3.418588800000000021e-03
8.144268000000000948e-04
-1.282600000000000053e-05
2.814435800000000387e-03
3.597039600000000430e-03
-1.281390000000000110e-05
-1.806530000000000202e-04
-2.378303400000000151e-03
-1.285020000000000107e-05
-3.457502400000000021e-03
-3.040391199999999995e-03
-2.179815000000000203e-04
2.183396599999999979e-03
3.591897100000000179e-03
3.303336300000000135e-03
9.569285000000000724e-04
-1.721116100000000216e-03
-3.310293800000000015e-03
-1.422004100000000184e-03
-1.277760000000000113e-05
1.511060100000000085e-03
3.277962600000000355e-03
2.059081200000000000e-03
-1.281390000000000110e-05
-2.887894900000000098e-03
-1.283810000000000165e-05
7.077048000000000279e-04
2.743917000000000231e-03
-1.287440000000000162e-05
0.000000000000000000e+00
3.606344500000000213e-03
2.911550400000000299e-03
-4.870250000000000338e-05
-2.297027700000000335e-03
-3.457078900000000021e-03
-3.736964000000000496e-04
2.109864900000000230e-03
-1.281390000000000110e-05
3.572186200000000266e-03
3.337615600000000144e-03
1.066397200000000029e-03
-1.645612100000000107e-03
-3.279426700000000021e-03
-3.356092300000000292e-03
1.426626300000000168e-03
-1.283810000000000165e-05
3.227372500000000224e-03
3.540738300000000408e-03
2.165488600000000340e-03
-8.801903000000000895e-04
-2.827697400000000246e-03
-3.435843400000000193e-03
5.959492000000000912e-04
-1.278970000000000055e-05
2.675902900000000275e-03
2.963290000000000368e-03
6.999850000000001091e-05
-1.278970000000000055e-05
-2.229388700000000355e-03
-3.469904900000000091e-03
-3.122840600000000195e-03
-5.061067000000000040e-04
3.551144300000000104e-03
-1.283810000000000165e-05
3.358947900000000021e-03
1.206745099999999987e-03
-3.233737100000000017e-03
-3.354410400000000080e-03
-1.675015100000000218e-03
-1.285020000000000107e-05
2.281406600000000350e-03
-1.283810000000000165e-05
0.000000000000000000e+00
-7.879520000000000751e-04
-1.277760000000000113e-05
-2.769932000000000123e-03
-3.445051500000000360e-03
4.917440000000000136e-04
-1.280180000000000167e-05
3.628535900000000314e-03
1.989602999999999999e-04
-1.276550000000000170e-05
0.000000000000000000e+00
-2.146733600000000266e-03
-3.440501900000000196e-03
-3.153877100000000277e-03
1.963188700000000064e-03
-1.281390000000000110e-05
3.518232300000000146e-03
3.398055100000000120e-03
1.347625400000000001e-03
-1.480156700000000072e-03
-3.188616200000000088e-03
-1.810051100000000055e-03
-1.280180000000000167e-05
1.267450800000000100e-03
3.119174300000000268e-03
3.562227900000000148e-03
-2.537553920000000171e-02
3.781492000000000013e-04
-1.283810000000000165e-05
2.530025300000000085e-03
3.619569800000000271e-03
-1.278970000000000055e-05
0.000000000000000000e+00
3.096317400000000043e-03
3.177823000000000084e-04
-3.435202100000000081e-03
-3.210565600000000065e-03
-1.281390000000000110e-05
1.884320900000000182e-03
-1.285020000000000107e-05
3.484074000000000199e-03
3.432794200000000365e-03
-3.141849700000000183e-03
-1.280180000000000167e-05
-3.393674900000000043e-03
-1.275340000000000058e-05
-1.927082300000000203e-03
1.173929900000000078e-03
3.059049400000000019e-03
2.494015700000000273e-03
-2.638150900000000004e-03
-1.281390000000000110e-05
0.000000000000000000e+00
-2.820304300000000142e-03
-1.288650000000000105e-05
2.377287000000000063e-04
3.629407100000000327e-03
-1.282600000000000053e-05
3.141462500000000418e-03
-2.007474700000000216e-03
-1.285020000000000107e-05
-3.422533400000000309e-03
-3.231050900000000375e-03
1.805537800000000127e-03
3.453315800000000043e-03
-1.283810000000000165e-05
3.447362600000000027e-03
-3.403379100000000247e-03
-1.278970000000000055e-05
0.000000000000000000e+00
0.000000000000000000e+00
-2.064405200000000128e-03
1.067558799999999974e-03
3.581188600000000111e-03
-1.281390000000000110e-05
-4.793415000000000523e-04
-1.285020000000000107e-05
-3.464726100000000038e-03
-2.886225100000000109e-03
-1.278970000000000055e-05
1.262151000000000039e-04
2.385950600000000168e-03
3.625982800000000089e-03
3.183473700000000271e-03
5.865959000000000667e-04
-1.926937100000000128e-03
-3.254645900000000328e-03
-1.278970000000000055e-05
-1.058314400000000006e-03
1.728618100000000159e-03
3.463298300000000173e-03
1.727625900000000084e-03
-1.227605500000000056e-03
-3.050494700000000187e-03
-1.280180000000000167e-05
-2.198799900000000286e-03
9.770628999999999859e-04
-1.281390000000000110e-05
2.929434200000000359e-03
3.586851400000000412e-03
2.703067400000000106e-03
-2.492345900000000284e-03
-1.283810000000000165e-05
-3.457441900000000207e-03
-7.356800000000000443e-06
-1.278970000000000055e-05
2.308135499999999958e-03
3.612128300000000142e-03
7.267865000000000523e-04
-1.287440000000000162e-05
-1.850477200000000180e-03
-1.207011300000000124e-03
-1.282600000000000053e-05
1.644027000000000162e-03
3.352232400000000265e-03
3.496198200000000342e-03
1.845552500000000040e-03
-1.142772400000000152e-03
-1.288650000000000105e-05
-2.994616900000000165e-03
-3.422956900000000309e-03
-2.305425100000000303e-03
8.758343000000000248e-04
2.861347500000000366e-03
3.594559100000000243e-03
2.779648300000000117e-03
-2.421076900000000177e-03
-3.467000900000000337e-03
-1.286230000000000050e-05
-1.532828000000000023e-04
-1.282600000000000053e-05
2.227876200000000230e-03
3.270424300000000176e-03
8.564743000000000746e-04
-1.775445100000000095e-03
-1.283810000000000165e-05
-3.340096100000000331e-03
-3.319259900000000058e-03
1.558383200000000059e-03
-1.286230000000000050e-05
3.505636200000000410e-03
-1.278970000000000055e-05
1.966649300000000104e-03
-1.037659700000000042e-03
-2.927195700000000296e-03
-3.428353500000000040e-03
-2.397118900000000039e-03
7.657606000000000829e-04
2.790042200000000024e-03
3.606441300000000263e-03
2.855067600000000400e-03
-1.165472000000000079e-04
-2.343310199999999992e-03
-3.469215200000000388e-03
-3.046465400000000073e-03
-2.876169999999999942e-04
2.152190700000000245e-03
3.588944700000000401e-03
3.300081400000000418e-03
9.973303999999999676e-04
-1.690854000000000098e-03
-3.306542800000000261e-03
-3.331021100000000016e-03
-1.473126600000000154e-03
1.471093800000000196e-03
3.258021800000000107e-03
3.519974700000000171e-03
2.102471800000000127e-03
-9.391778000000000799e-04
-2.870265200000000384e-03
-3.427905800000000027e-03
-2.517429200000000349e-03
6.599219000000000352e-04
2.718991000000000029e-03
3.606937400000000300e-03
2.936234400000000376e-03
-2.273952999999999999e-03
-3.459535200000000196e-03
-3.102645700000000034e-03
2.067793200000000130e-03
-1.285020000000000107e-05
3.336901700000000429e-03
-1.274130000000000115e-05
1.132402700000000040e-03
-1.610340600000000023e-03
-3.256001100000000155e-03
-1.280180000000000167e-05
-3.346968900000000385e-03
-1.603673500000000075e-03
1.401845500000000041e-03
3.203838000000000085e-03
2.220967099999999941e-03
-1.283810000000000165e-05
-8.468911000000000407e-04
-2.803194900000000045e-03
-3.430301600000000388e-03
5.604599000000000039e-04
2.642724700000000180e-03
-1.278970000000000055e-05
3.617282900000000183e-03
3.006753200000000098e-03
1.232748000000000144e-04
-2.192411100000000047e-03
-3.452698700000000377e-03
-5.629645999999999869e-04
-1.982464000000000134e-04
3.533865500000000354e-03
3.379469500000000133e-03
-1.533517700000000105e-03
-3.218648400000000305e-03
-3.372124800000000054e-03
-1.281390000000000110e-05
-1.734789100000000070e-03
3.148274800000000224e-03
-1.282600000000000053e-05
2.323321000000000153e-03
-7.430005000000000160e-04
-1.280180000000000167e-05
-3.446636600000000088e-03
-2.694210200000000336e-03
-1.281390000000000110e-05
4.232943000000000512e-04
3.630834900000000191e-03
3.053519700000000003e-03
-1.278970000000000055e-05
2.534707999999999991e-04
-2.120888000000000027e-03
-3.453001200000000315e-03
-3.175415100000000043e-03
-7.022356000000000431e-04
1.919519800000000229e-03
3.402532100000000247e-03
1.391790400000000091e-03
-1.285020000000000107e-05
-1.441763400000000122e-03
-3.380631100000000295e-03
-1.871349700000000038e-03
-1.275340000000000058e-05
1.212214300000000189e-03
3.086843100000000173e-03
2.440013400000000127e-03
-1.283810000000000165e-05
-6.355767000000000231e-04
-2.678480200000000078e-03
-2.778752900000000092e-03
3.205532000000000195e-04
-1.285020000000000107e-05
3.628172900000000128e-03
-1.288650000000000105e-05
3.112071600000000313e-03
-2.043532700000000053e-03
-3.427784800000000399e-03
9.869970000000000642e-05
8.653454150000000622e-02
1.844318300000000058e-03
3.464605100000000409e-03
1.529754600000000127e-03
-1.359241400000000101e-03
-3.126434300000000086e-03
-3.397667900000000355e-03
-1.286230000000000050e-05
1.122033000000000145e-03
-1.278970000000000055e-05
3.021926600000000070e-03
3.568580400000000152e-03
2.546190900000000132e-03
-5.380264999999999961e-04
-2.604319300000000007e-03
-2.852587100000000212e-03
1.883365000000000017e-04
-1.286230000000000050e-05
2.419032000000000213e-03
3.161403300000000232e-03
5.232039999999999868e-04
-1.971186800000000044e-03
-3.400608200000000345e-03
-1.280180000000000167e-05
-3.254791100000000402e-03
-9.913772000000001684e-04
1.767785800000000072e-03
3.416810100000000194e-03
3.466093400000000088e-03
1.656054400000000039e-03
-1.274722900000000141e-03
-3.072020600000000164e-03
-3.413603600000000068e-03
-2.126877500000000278e-03
2.956102600000000153e-03
-1.278970000000000055e-05
3.580498900000000408e-03
2.637848400000000065e-03
-4.232822000000000450e-04
-3.463649200000000136e-03
-1.275340000000000058e-05
4.877509999999999994e-05
2.347980800000000218e-03
-1.283810000000000165e-05
3.622292300000000149e-03
3.208375500000000026e-03
-1.891024300000000149e-03
-1.281390000000000110e-05
-3.274260000000000191e-03
-1.283810000000000165e-05
-1.112631300000000096e-03
1.691398500000000161e-03
3.388738100000000114e-03
3.487885500000000201e-03
-1.176882300000000074e-03
-3.014581899999999991e-03
-3.414293300000000204e-03
-2.233526900000000308e-03
0.000000000000000000e+00
-9.107065000000000125e-04
2.892033100000000051e-03
2.727339999999999973e-03
-1.285020000000000107e-05
-3.014594000000000431e-04
-2.460970600000000029e-03
-3.474309300000000180e-03
-2.974785000000000190e-03
-7.961800000000000919e-05
2.266547800000000105e-03
3.239206300000000219e-03
-1.278970000000000055e-05
7.811518000000000584e-04
-1.817468400000000171e-03
-3.300625900000000047e-03
-1.263554600000000054e-03
-1.285020000000000107e-05
1.601991600000000080e-03
1.912755900000000231e-03
-2.964826700000000072e-03
-1.280180000000000167e-05
-2.357902800000000101e-03
-1.285020000000000107e-05
8.308828000000000741e-04
-1.277760000000000113e-05
0.000000000000000000e+00
3.595236700000000157e-03
2.825773500000000344e-03
-1.960079000000000042e-04
-2.385248800000000242e-03
-1.285020000000000107e-05
-3.463733900000000396e-03
-3.032852900000000251e-03
-2.101649000000000247e-04
2.191769799999999935e-03
3.589549700000000277e-03
3.282427500000000258e-03
9.220926000000001033e-04
-3.323857900000000247e-03
-3.333961400000000439e-03
-1.408488400000000194e-03
1.529355300000000140e-03
3.522527800000000396e-03
-1.286230000000000050e-05
0.000000000000000000e+00
2.034953800000000208e-03
-2.902451200000000404e-03
-3.431112300000000153e-03
-1.282600000000000053e-05
-2.467190000000000182e-03
7.217529000000000739e-04
2.755823400000000263e-03
3.603367900000000422e-03
2.899317300000000316e-03
-7.004690000000000861e-05
-2.316375600000000062e-03
-3.088270900000000038e-03
-3.619957000000000144e-04
-1.285020000000000107e-05
2.114317700000000345e-03
1.040938799999999989e-03
-1.282600000000000053e-05
-1.665734400000000014e-03
-1.281390000000000110e-05
-3.286650400000000038e-03
-1.527951700000000071e-03
-1.283810000000000165e-05
1.443384800000000086e-03
3.238661800000000156e-03
3.540084900000000073e-03
2.148887400000000069e-03
-8.944199000000000116e-04
-2.840608100000000143e-03
-2.553281500000000297e-03
-1.280180000000000167e-05
6.020113000000000547e-04
2.685183600000000045e-03
3.622485900000000248e-03
2.962309900000000083e-03
-2.237737700000000298e-03
-1.282600000000000053e-05
-3.470098500000000190e-03
-4.851616000000000544e-04
2.043532700000000053e-03
-1.283810000000000165e-05
3.553636900000000081e-03
3.357677400000000020e-03
1.186259800000000111e-03
-1.573883300000000198e-03
-3.243985800000000284e-03
1.258334660000000153e-02
1.353179300000000029e-03
3.178161800000000366e-03
3.547611100000000028e-03
2.271775000000000183e-03
-7.983580000000000971e-04
-2.775800500000000313e-03
-2.658478900000000016e-03
-1.285020000000000107e-05
5.059857000000000504e-04
3.616593200000000046e-03
-1.248720000000000133e-05
-2.168816100000000094e-03
-1.278970000000000055e-05
-3.159830300000000293e-03
-1.287440000000000162e-05
-6.241543000000000221e-04
1.972711399999999959e-03
3.392973100000000117e-03
1.324030400000000048e-03
-1.494628300000000118e-03
-3.197134600000000118e-03
-3.377473000000000194e-03
-1.283810000000000165e-05
-1.796753200000000177e-03
1.278546500000000150e-03
3.129882800000000336e-03
2.388854600000000356e-03
-1.286230000000000050e-05
-7.003359000000000450e-04
-2.710182200000000284e-03
-2.741376000000000229e-03
3.840782000000000050e-04
-1.283810000000000165e-05
2.543746700000000180e-03
3.620489400000000309e-03
3.092384900000000412e-03
3.143701000000000481e-04
-2.089307000000000317e-03
-3.429164200000000239e-03
-7.671037000000000125e-04
1.900668000000000106e-03
-1.282600000000000053e-05
3.484969400000000224e-03
1.445816900000000032e-03
-1.280180000000000167e-05
-1.414054400000000012e-03
-3.151106200000000374e-03
-3.399301400000000108e-03
-1.928921500000000061e-03
3.066273100000000036e-03
-1.285020000000000107e-05
2.485448900000000218e-03
-5.937712000000000588e-04
-1.283810000000000165e-05
-2.648919900000000320e-03
-2.813842900000000299e-03
-1.280180000000000167e-05
2.477838000000000111e-04
3.632795100000000329e-03
-1.285020000000000107e-05
3.134565500000000351e-03
4.434408000000000251e-04
-2.017070000000000148e-03
-3.432564300000000030e-03
-3.230167600000000139e-03
1.819380200000000067e-03
-1.287440000000000162e-05
3.463721800000000173e-03
3.448572600000000214e-03
-1.319589700000000157e-03
-3.106118400000000297e-03
-2.046860200000000241e-03
-1.285020000000000107e-05
1.084644000000000059e-03
3.006232900000000048e-03
-1.286230000000000050e-05
3.590178900000000166e-03
-4.827416000000000064e-04
-1.287440000000000162e-05
-2.580143500000000190e-03
-3.463225700000000136e-03
-2.891016700000000397e-03
1.348061000000000170e-04
2.392871800000000247e-03
5.785131000000000431e-04
-1.281390000000000110e-05
0.000000000000000000e+00
-3.399277200000000096e-03
-1.281390000000000110e-05
-1.042451300000000114e-03
1.737572100000000196e-03
-1.283810000000000165e-05
3.414607900000000366e-03
-1.235869800000000173e-03
-1.281390000000000110e-05
-3.410760100000000128e-03
-2.182186600000000226e-03
2.943397600000000145e-03
3.589295600000000364e-03
-1.283810000000000165e-05
0.000000000000000000e+00
2.693956099999999989e-03
-3.792018999999999989e-04
-2.505873700000000280e-03
-3.457272500000000120e-03
-1.280180000000000167e-05
-2.950536600000000335e-03
6.776000000000000854e-06
2.321106700000000102e-03
3.618916400000000370e-03
3.233809700000000054e-03
-1.859092400000000042e-03
-1.282600000000000053e-05
-3.369862100000000412e-03
-1.183307400000000115e-03
1.662527900000000105e-03
3.368736800000000052e-03
3.506253300000000076e-03
1.836574300000000208e-03
-1.143583100000000134e-03
-2.998851900000000167e-03
-1.282600000000000053e-05
-3.421928400000000432e-03
-2.291461700000000084e-03
8.882368000000000945e-04
2.876883900000000091e-03
3.602581400000000236e-03
-2.571250000000000293e-04
-1.283810000000000165e-05
-2.430914200000000233e-03
-3.465960300000000237e-03
-3.001477599999999996e-03
-1.404689000000000198e-04
2.243690900000000314e-03
3.279511400000000281e-03
-1.778566900000000178e-03
-3.343847100000000086e-03
-3.312556500000000091e-03
-1.316806700000000031e-03
3.327330600000000076e-03
3.517240100000000071e-03
1.966552500000000054e-03
-1.283810000000000165e-05
-1.043274100000000102e-03
-2.938702800000000340e-03
-3.423840200000000111e-03
-1.281390000000000110e-05
0.000000000000000000e+00
-2.396211400000000224e-03
7.888232000000000880e-04
2.808010700000000345e-03
3.618359800000000084e-03
2.857378700000000066e-03
-1.341527000000000073e-04
-3.469517700000000326e-03
-1.278970000000000055e-05
-3.052575900000000387e-03
-2.597386000000000139e-04
2.166347700000000129e-03
3.598939300000000320e-03
9.831613000000000765e-04
-1.694242000000000100e-03
-3.304401100000000247e-03
-3.324946900000000372e-03
-1.451770100000000048e-03
-1.280180000000000167e-05
1.493853900000000155e-03
3.274586700000000142e-03
3.531070400000000439e-03
2.098297299999999938e-03
-9.540971000000000304e-04
-2.877428400000000153e-03
-3.428813300000000275e-03
-2.507047400000000231e-03
6.866145000000000581e-04
2.735543800000000275e-03
3.612309800000000452e-03
2.941376900000000193e-03
-1.589940000000000231e-05
-2.280257099999999978e-03
-3.455372800000000230e-03
-4.149816000000000182e-04
2.089343300000000118e-03
3.564805200000000385e-03
3.349570400000000201e-03
-1.277760000000000113e-05
1.122589599999999996e-03
-1.621811400000000049e-03
-3.355317900000000329e-03
-1.593352200000000204e-03
-1.281390000000000110e-05
1.414018099999999993e-03
3.217765100000000069e-03
3.551930800000000291e-03
2.214009600000000060e-03
-8.575996000000001094e-04
-2.820800400000000180e-03
-3.439981600000000146e-03
5.637753000000000772e-04
-1.285020000000000107e-05
2.662350900000000267e-03
3.623986300000000150e-03
1.088758000000000054e-04
-2.210379599999999934e-03
-1.282600000000000053e-05
-3.459329500000000307e-03
-3.143325900000000072e-03
-5.456011000000000844e-04
2.023168400000000238e-03
3.394086300000000254e-03
1.253221200000000177e-03
-1.281390000000000110e-05
-1.536240200000000200e-03
-3.225896300000000334e-03
-3.377412500000000380e-03
-1.727214500000000090e-03
1.315802400000000167e-03
3.163799100000000159e-03
3.564974600000000039e-03
2.318481000000000274e-03
-7.569760000000000247e-04
-2.754649700000000312e-03
-3.458942300000000108e-03
-2.694294900000000163e-03
4.334099000000000328e-04
3.638155400000000258e-03
3.062074400000000269e-03
-1.283810000000000165e-05
2.444683999999999920e-04
-2.137356100000000012e-03
-3.462487600000000408e-03
-3.186934300000000310e-03
-6.879696999999999939e-04
1.937585100000000166e-03
3.521015300000000271e-03
1.385970300000000143e-03
-1.457880600000000144e-03
-1.277760000000000113e-05
-3.190624800000000250e-03
-3.387576500000000386e-03
-1.859249700000000123e-03
1.231634800000000170e-03
3.108901400000000422e-03
3.571302900000000030e-03
-6.592806000000000317e-04
-2.695081400000000349e-03
-3.451488700000000191e-03
3.390662000000000233e-04
-1.276550000000000170e-05
0.000000000000000000e+00
2.516678999999999965e-03
3.634610100000000392e-03
-2.055027700000000308e-03
-3.437416400000000132e-03
-3.219555900000000120e-03
-1.285020000000000107e-05
-8.346701000000000641e-04
1.865856300000000041e-03
3.485223500000000137e-03
-1.277760000000000113e-05
1.523765100000000093e-03
-3.139405500000000231e-03
-3.408194900000000114e-03
1.142857099999999978e-03
-1.281390000000000110e-05
3.590275700000000215e-03
-1.285020000000000107e-05
0.000000000000000000e+00
2.557262400000000387e-03
-5.437255999999999903e-04
-2.620944700000000290e-03
-3.460164400000000084e-03
-2.864529800000000046e-03
2.441622700000000302e-03
-1.287440000000000162e-05
3.634743200000000243e-03
3.181295700000000021e-03
5.192715000000000308e-04
-1.982972200000000015e-03
-3.418479900000000182e-03
-3.265669000000000124e-03
-9.762643000000001186e-04
3.447023800000000287e-03
3.482488900000000036e-03
-1.281390000000000110e-05
-1.287512600000000193e-03
-3.090073800000000311e-03
-3.423924900000000372e-03
1.038010600000000005e-03
-1.281390000000000110e-05
2.979395100000000168e-03
2.649585400000000011e-03
-1.291070000000000160e-05
-4.230644000000000418e-04
-2.548151100000000269e-03
-3.485017800000000249e-03
-2.925646900000000369e-03
5.637390000000000586e-05
-1.280180000000000167e-05
2.361895799999999979e-03
3.645863100000000089e-03
6.477130000000000647e-04
-1.900680100000000112e-03
-3.402834600000000185e-03
-1.281390000000000110e-05
-1.121791000000000021e-03
-1.283810000000000165e-05
1.701901300000000124e-03
3.499356300000000444e-03
1.791405000000000037e-03
-1.190434300000000082e-03
-3.036035200000000364e-03
-3.433810600000000018e-03
-1.275340000000000058e-05
-2.253624999999999986e-03
9.303811000000000156e-04
2.909965300000000137e-03
3.612672800000000205e-03
2.747474400000000320e-03
-3.486324600000000051e-03
-1.281390000000000110e-05
0.000000000000000000e+00
-6.896999999999999865e-05
-1.281390000000000110e-05
3.628983600000000326e-03
-1.281390000000000110e-05
-3.373734100000000229e-03
-1.267063600000000118e-03
1.619560800000000196e-03
3.354434600000000093e-03
-1.281390000000000110e-05
0.000000000000000000e+00
0.000000000000000000e+00
-1.096005900000000029e-03
-1.287440000000000162e-05
0.000000000000000000e+00
-3.436472600000000082e-03
-2.369059000000000182e-03
8.465281000000000715e-04
-1.282600000000000053e-05
0.000000000000000000e+00
2.849053900000000136e-03
3.625414100000000448e-03
-1.940960999999999999e-04
-3.482755100000000173e-03
-3.059860100000000218e-03
-2.120041000000000189e-04
-1.286230000000000050e-05
2.204825700000000339e-03
3.608365200000000165e-03
3.315533100000000316e-03
-1.746586600000000046e-03
-3.338099600000000392e-03
-1.283810000000000165e-05
-1.401627700000000146e-03
-1.281390000000000110e-05
0.000000000000000000e+00
3.303711400000000110e-03
-1.281390000000000110e-05
3.549184100000000400e-03
-1.002896400000000002e-03
-3.452916500000000055e-03
2.772243100000000224e-03
-1.278970000000000055e-05
0.000000000000000000e+00
0.000000000000000000e+00
0.000000000000000000e+00
3.632347400000000316e-03
2.897478100000000240e-03
-2.332202400000000370e-03
-3.099064100000000366e-03
-1.277760000000000113e-05
-3.506338000000000445e-04
3.349388900000000325e-03
-1.281390000000000110e-05
0.000000000000000000e+00
0.000000000000000000e+00
-3.306179800000000075e-03
-1.278970000000000055e-05
1.448769300000000027e-03
-1.281390000000000110e-05
0.000000000000000000e+00
0.000000000000000000e+00
3.253641600000000030e-03
3.563546800000000174e-03
2.150242600000000330e-03
-2.861166000000000056e-03
-1.285020000000000107e-05
-3.463467700000000260e-03
6.123810000000000581e-04
3.645681600000000213e-03
-1.283810000000000165e-05
2.971675300000000113e-03
-3.484993600000000236e-03
-1.281390000000000110e-05
0.000000000000000000e+00
0.000000000000000000e+00
-3.138546400000000007e-03
-4.720331000000000461e-04
2.062783800000000164e-03
3.581091800000000061e-03
3.382421900000000346e-03
-3.267048400000000397e-03
-1.281390000000000110e-05
0.000000000000000000e+00
-1.671203600000000216e-03
-1.285020000000000107e-05
1.368788300000000008e-03
3.570468000000000253e-03
-2.807829200000000035e-03
-1.277760000000000113e-05
0.000000000000000000e+00
-3.460793600000000407e-03
-1.278970000000000055e-05
2.635549400000000188e-03
-1.281390000000000110e-05
0.000000000000000000e+00
3.643491500000000174e-03
3.049260500000000422e-03
1.685530000000000242e-04
-2.175846200000000012e-03
-3.467521200000000386e-03
-3.178597400000000156e-03
1.991647900000000342e-03
-1.286230000000000050e-05
3.546570500000000362e-03
3.422666500000000160e-03
-1.503570200000000148e-03
-1.281390000000000110e-05
-3.221383000000000406e-03
-1.807510100000000054e-03
-1.282600000000000053e-05
1.284088300000000172e-03
3.149968800000000225e-03
3.593942000000000143e-03
2.396017800000000125e-03
-2.731139400000000186e-03
-3.466190200000000138e-03
3.886278000000000063e-04
-1.283810000000000165e-05
2.561449000000000364e-03
3.113209000000000028e-04
-1.286230000000000050e-05
0.000000000000000000e+00
0.000000000000000000e+00
-2.102169300000000188e-03
-3.458772900000000022e-03
-3.226053600000000198e-03
-7.592871000000000169e-04
3.517941900000000430e-03
1.450172900000000096e-03
-1.283810000000000165e-05
0.000000000000000000e+00
-1.411452900000000196e-03
-3.169824900000000212e-03
-1.927868800000000172e-03
-1.277760000000000113e-05
1.189793000000000187e-03
3.090981300000000126e-03
3.614270000000000156e-03
2.499557500000000078e-03
-2.662496100000000341e-03
-1.285020000000000107e-05
-3.486288300000000250e-03
-2.831629900000000311e-03
2.491789299999999999e-03
-1.283810000000000165e-05
3.165880300000000359e-03
-1.278970000000000055e-05
-2.023458799999999953e-03
-1.283810000000000165e-05
-3.251149000000000053e-03
-1.278970000000000055e-05
1.836634800000000022e-03
-1.281390000000000110e-05
3.486675500000000448e-03
-1.323122900000000017e-03
-1.280180000000000167e-05
0.000000000000000000e+00
-3.121908900000000368e-03
1.095195200000000047e-03
-1.281390000000000110e-05
0.000000000000000000e+00
3.029247100000000137e-03
3.623901600000000323e-03
-4.909696000000000502e-04
-1.289860000000000048e-05
-2.592449200000000210e-03
-3.483299600000000235e-03
1.399001999999999993e-04
-1.282600000000000053e-05
2.414228300000000136e-03
3.658301900000000394e-03
3.213288100000000376e-03
5.799651000000000285e-04
-3.422388200000000234e-03
-1.282600000000000053e-05
-3.282052400000000283e-03
-1.043951700000000015e-03
3.506047600000000188e-03
-1.281390000000000110e-05
0.000000000000000000e+00
1.730469400000000024e-03
-1.245598200000000173e-03
-2.192302200000000208e-03
-1.282600000000000053e-05
0.000000000000000000e+00
2.967960600000000160e-03
-1.276550000000000170e-05
-2.522837900000000303e-03
-1.281390000000000110e-05
0.000000000000000000e+00
-3.482343700000000396e-03
-1.275340000000000058e-05
-2.974083200000000263e-03
3.645028200000000312e-03
-1.278970000000000055e-05
0.000000000000000000e+00
7.079347000000000374e-04
-1.282600000000000053e-05
-1.871494900000000112e-03
-1.192140400000000090e-03
-1.281390000000000110e-05
0.000000000000000000e+00
3.388895400000000412e-03
1.841329600000000044e-03
-1.280180000000000167e-05
-3.447616700000000374e-03
-1.277760000000000113e-05
0.000000000000000000e+00
0.000000000000000000e+00
8.993083000000000240e-04
2.900466800000000255e-03
-1.285020000000000107e-05
3.635832200000000368e-03
2.793345500000000200e-03
-2.636590000000000179e-04
-1.300992000000000164e-04
-1.285020000000000107e-05
0.000000000000000000e+00
0.000000000000000000e+00
2.264127800000000166e-03
3.644616800000000101e-03
3.302090000000000147e-03
8.331818000000000600e-04
-1.798253600000000079e-03
-3.340108200000000121e-03
-1.278970000000000055e-05
-1.311035000000000108e-03
3.361246900000000332e-03
-1.282600000000000053e-05
-2.970150700000000199e-03
-1.280180000000000167e-05
0.000000000000000000e+00
-3.458494600000000096e-03
2.831702500000000348e-03
-1.283810000000000165e-05
0.000000000000000000e+00
0.000000000000000000e+00
3.645379100000000275e-03
2.873060300000000299e-03
-1.465189000000000042e-04
-2.383700000000000315e-03
-3.504752900000000174e-03
-3.076291900000000402e-03
-2.623764000000000109e-04
2.186482100000000043e-03
3.333114400000000439e-03
9.716421000000000259e-04
-1.723971700000000162e-03
1.511822400000000042e-03
-1.287440000000000162e-05
0.000000000000000000e+00
0.000000000000000000e+00
0.000000000000000000e+00
3.308236800000000262e-03
3.558464800000000171e-03
2.099156400000000162e-03
-9.763974000000000784e-04
-2.914853700000000040e-03
-3.459740900000000084e-03
-2.525294200000000044e-03
7.000213000000001006e-04
2.761958100000000155e-03
3.639897800000000284e-03
-3.525940000000000329e-05
-3.489845700000000338e-03
-1.283810000000000165e-05
0.000000000000000000e+00
-3.131141200000000114e-03
-3.958757000000000356e-04
2.112055000000000269e-03
3.597039600000000430e-03
1.103870900000000158e-03
-1.283810000000000165e-05
-1.650270600000000110e-03
-3.301823800000000010e-03
-3.394606600000000304e-03
1.435858600000000131e-03
3.255589700000000378e-03
3.586948200000000028e-03
-1.285020000000000107e-05
-2.852768600000000088e-03
-1.282600000000000053e-05
0.000000000000000000e+00
-3.469336200000000450e-03
-2.617181600000000313e-03
5.898265999999999882e-04
2.690761700000000086e-03
3.649710900000000327e-03
3.015441000000000215e-03
8.703530000000000337e-05
-2.237241600000000261e-03
-3.172390100000000226e-03
-1.282600000000000053e-05
-5.364656000000000632e-04
2.039939000000000162e-03
3.582120300000000371e-03
3.409126600000000375e-03
1.232179300000000016e-03
-1.566066700000000094e-03
-3.266866900000000087e-03
-3.404516500000000397e-03
-1.719591500000000085e-03
1.339228000000000033e-03
3.196094000000000018e-03
3.587178100000000362e-03
2.318638300000000138e-03
-7.788044000000000477e-04
-3.485308200000000398e-03
-2.703188400000000168e-03
-1.280180000000000167e-05
4.574163000000000339e-04
2.610611300000000197e-03
3.656728900000000455e-03
2.155373000000000141e-04
-2.160176700000000002e-03
-3.488962400000000103e-03
-3.200062800000000318e-03
-1.280180000000000167e-05
-6.662139000000000082e-04
1.959522400000000136e-03
3.550769200000000129e-03
3.424457300000000211e-03
1.369865200000000127e-03
-1.484585300000000174e-03
-3.225267100000000012e-03
-3.413047000000000216e-03
1.249191900000000063e-03
-1.283810000000000165e-05
3.135521400000000191e-03
3.592538400000000291e-03
-6.859127000000000236e-04
-2.724690100000000132e-03
-1.282600000000000053e-05
-2.794664400000000225e-03
-1.278970000000000055e-05
3.554496000000000196e-04
2.535058900000000063e-03
3.126761000000000037e-03
3.384249000000000198e-04
-2.087455700000000018e-03
-1.281390000000000110e-05
-3.464508300000000360e-03
-3.236169200000000180e-03
-8.026051000000001059e-04
1.887079700000000079e-03
3.516054300000000330e-03
3.459486800000000171e-03
1.508131900000000102e-03
-1.397646800000000057e-03
-1.986989400000000339e-03
-1.286230000000000050e-05
0.000000000000000000e+00
1.165847100000000055e-03
3.077501900000000155e-03
2.538144400000000127e-03
-1.281390000000000110e-05
-5.926943000000000489e-04
-2.663778700000000131e-03
-3.488260600000000176e-03
2.332759000000000275e-04
-1.281390000000000110e-05
2.470735300000000047e-03
3.654865500000000367e-03
4.707626000000000453e-04
-1.283810000000000165e-05
-2.012605100000000244e-03
-3.449649500000000115e-03
-3.274998100000000353e-03
-9.405451000000000219e-04
1.816125300000000133e-03
3.480673900000000407e-03
1.614164200000000032e-03
-1.318476500000000020e-03
-3.133403900000000190e-03
-1.282600000000000053e-05
-3.444482800000000285e-03
-2.100160700000000026e-03
1.065925300000000004e-03
3.019179900000000180e-03
3.611741100000000378e-03
2.622493500000000217e-03
-4.756389000000000515e-04
-2.596067100000000114e-03
-3.503809100000000124e-03
-2.932761700000000114e-03
2.391698100000000295e-03
-1.281390000000000110e-05
3.658398700000000444e-03
3.221854900000000431e-03
5.951748000000000195e-04
-3.439437100000000084e-03
-1.281390000000000110e-05
-3.301134100000000307e-03
-1.070983099999999995e-03
1.731485800000000111e-03
3.442667800000000222e-03
3.501377000000000395e-03
1.748994500000000197e-03
-3.080587400000000219e-03
-1.278970000000000055e-05
-3.454840400000000391e-03
-2.215485799999999950e-03
9.684598000000000208e-04
2.953561600000000151e-03
3.618154100000000196e-03
2.716583100000000313e-03
-2.528742700000000294e-03
-1.281390000000000110e-05
-3.503724400000000298e-03
-2.999009200000000031e-03
-1.777490000000000154e-05
2.319424800000000324e-03
3.260647500000000368e-03
7.269075000000000059e-04
-3.403221800000000383e-03
-3.323507000000000284e-03
-1.282600000000000053e-05
-1.207773600000000081e-03
-2.478080000000000167e-05
3.387322400000000039e-03
3.518680000000000158e-03
1.875306400000000115e-03
-1.139505399999999995e-03
-3.022362200000000294e-03
-3.453630400000000204e-03
-2.340757100000000202e-03
8.765724000000000779e-04
2.875988500000000066e-03
3.616460100000000195e-03
2.814871400000000176e-03
-2.583349999999999991e-04
-2.441404900000000190e-03
-3.041964200000000368e-03
-1.281390000000000110e-05
2.249837699999999996e-03
-1.285020000000000107e-05
3.633460600000000453e-03
3.304836700000000037e-03
8.608666000000000495e-04
-1.785730100000000164e-03
-3.361609900000000085e-03
-3.356830400000000020e-03
-1.352562200000000147e-03
1.571947300000000073e-03
3.334820500000000229e-03
3.545348400000000386e-03
-1.056741400000000067e-03
-2.962648700000000256e-03
-1.283810000000000165e-05
-3.470074300000000177e-03
-2.445603599999999957e-03
7.638246000000000662e-04
2.798463800000000005e-03
3.626587800000000399e-03
2.881530300000000305e-03
-1.335961000000000201e-04
-2.372096100000000221e-03
-3.505551500000000150e-03
-3.099669100000000243e-03
-2.993419000000000418e-04
2.168852400000000329e-03
3.611620100000000316e-03
3.334276000000000167e-03
9.878924000000001166e-04
-1.715453300000000132e-03
-3.346448600000000335e-03
-3.374351200000000328e-03
-1.488033800000000207e-03
1.483278500000000154e-03
3.555548700000000194e-03
2.105557300000000191e-03
-9.611756000000000813e-04
-1.286230000000000050e-05
-2.903927400000000294e-03
-2.539306000000000289e-03
6.620273000000000303e-04
2.736523900000000127e-03
-1.286230000000000050e-05
3.648041100000000338e-03
2.950004200000000062e-03
-1.802899999999999967e-05
-2.301952400000000041e-03
-3.509266200000000103e-03
-4.284852000000000018e-04
2.089476399999999970e-03
-1.282600000000000053e-05
3.598890900000000295e-03
3.361367900000000394e-03
-1.628914100000000004e-03
-3.301993200000000097e-03
-3.389972300000000313e-03
-1.281390000000000110e-05
-1.623190800000000105e-03
1.401397800000000029e-03
3.561017900000000395e-03
2.228130300000000143e-03
-1.283810000000000165e-05
-8.722890000000000504e-04
-2.852381400000000324e-03
-3.477189100000000355e-03
-2.647697800000000344e-03
5.660138000000000322e-04
2.672442300000000236e-03
3.643406800000000348e-03
3.025205700000000233e-03
9.347250000000001011e-05
-3.490716900000000351e-03
-3.178851500000000069e-03
-1.275340000000000058e-05
2.022164099999999940e-03
-1.282600000000000053e-05
3.565337600000000225e-03
3.404383400000000112e-03
-1.558734100000000022e-03
-1.277760000000000113e-05
-3.415575900000000428e-03
-1.281390000000000110e-05
1.320400400000000139e-03
3.185373400000000160e-03
3.583790100000000360e-03
-1.285020000000000107e-05
-7.735651000000000723e-04
-1.281390000000000110e-05
-2.785093300000000306e-03
-3.476922900000000219e-03
-2.726117899999999997e-03
4.495634000000000197e-04
2.603278700000000341e-03
3.650763600000000216e-03
3.083128400000000220e-03
-2.161435100000000213e-03
-1.281390000000000110e-05
-3.223899800000000395e-03
-1.283810000000000165e-05
-6.952539000000000418e-04
3.537362400000000195e-03
3.443248600000000086e-03
1.376810600000000001e-03
-3.219737400000000430e-03
-1.287440000000000162e-05
-3.430168500000000103e-03
-1.285020000000000107e-05
-1.857821900000000042e-03
1.231066100000000095e-03
3.599495900000000172e-03
2.436431800000000026e-03
-6.627896000000000959e-04
-2.722669400000000180e-03
-1.285020000000000107e-05
-2.799952100000000117e-03
-1.285020000000000107e-05
3.235056000000000151e-04
2.531562000000000222e-03
3.135097900000000191e-03
-1.282600000000000053e-05
3.529449000000000366e-04
-2.082906100000000288e-03
-3.475132100000000168e-03
-8.202106000000000240e-04
3.516114800000000144e-03
3.460793600000000407e-03
-1.287440000000000162e-05
0.000000000000000000e+00
1.510600300000000066e-03
-1.388063600000000132e-03
-3.176358900000000093e-03
-3.431632600000000203e-03
-1.992446500000000318e-03
1.144333300000000084e-03
3.075251300000000302e-03
3.608740300000000140e-03
2.545380200000000367e-03
-2.653481600000000273e-03
-3.489313300000000066e-03
-2.874645400000000028e-03
-1.282600000000000053e-05
2.271170000000000144e-04
2.462398400000000327e-03
3.656874100000000096e-03
4.787365000000000132e-04
-2.008055500000000080e-03
-3.452335700000000191e-03
-3.278688600000000293e-03
1.803420300000000125e-03
-1.287440000000000162e-05
3.470509900000000401e-03
-1.293490000000000045e-05
3.489942500000000388e-03
1.632592500000000155e-03
-1.311797300000000065e-03
-3.127124000000000223e-03
-3.443248600000000086e-03
-2.120089400000000051e-03
1.062839800000000157e-03
3.013674400000000177e-03
3.611474900000000241e-03
-4.720089000000000337e-04
-2.587415600000000232e-03
-1.278970000000000055e-05
-3.490208700000000091e-03
-2.947076000000000296e-03
8.658760000000000426e-05
3.643854500000000361e-03
-1.285020000000000107e-05
3.228776100000000076e-03
6.109653000000000913e-04
-1.939642100000000136e-03
-3.431644700000000426e-03
-3.316476900000000366e-03
1.724092700000000224e-03
-1.281390000000000110e-05
3.423900700000000359e-03
3.510040600000000066e-03
-1.228464600000000063e-03
-3.075735300000000116e-03
-3.456292400000000268e-03
-1.278970000000000055e-05
-2.228686899999999995e-03
9.552829000000000962e-04
2.939961200000000118e-03
3.620779800000000458e-03
2.723746300000000082e-03
-3.550261000000000194e-04
-2.516787900000000237e-03
-3.513815800000000267e-03
-3.002602900000000356e-03
-3.684450000000000274e-05
2.313350600000000246e-03
3.263902400000000086e-03
-1.865408600000000028e-03
-1.283810000000000165e-05
-3.420924100000000134e-03
-3.336647600000000081e-03
-1.227593400000000050e-03
1.640300200000000203e-03
-1.283810000000000165e-05
3.387927400000000349e-03
3.524004000000000286e-03
-1.132451100000000065e-03
-1.287440000000000162e-05
-3.020692400000000305e-03
-2.341132200000000177e-03
8.603100000000000894e-04
-1.287440000000000162e-05
2.874246100000000040e-03
3.626503100000000139e-03
2.804223400000000355e-03
-2.448156700000000182e-03
-3.511698300000000265e-03
-1.283810000000000165e-05
-1.569854000000000030e-04
2.233611600000000134e-03
-1.283810000000000165e-05
3.634162400000000379e-03
3.294297600000000055e-03
8.645450000000000921e-04
-1.788271100000000165e-03
-3.377327800000000119e-03
-3.356721500000000181e-03
1.560730600000000178e-03
-1.283810000000000165e-05
3.534518900000000255e-03
-1.282600000000000053e-05
1.999270900000000347e-03
-1.056426800000000122e-03
-2.971409100000000410e-03
7.673215000000000157e-04
2.808095400000000172e-03
-1.285020000000000107e-05
0.000000000000000000e+00
3.622050300000000458e-03
2.889467900000000037e-03
-2.378714800000000362e-03
-3.499344200000000221e-03
-3.109542700000000100e-03
-2.977688999999999944e-04
2.162681400000000202e-03
-1.282600000000000053e-05
3.599737900000000296e-03
3.338668300000000033e-03
9.872511000000000047e-04
-1.718187900000000016e-03
-3.387044100000000113e-03
-1.488251600000000101e-03
-1.288650000000000105e-05
1.486944800000000082e-03
3.559299700000000382e-03
-9.695367000000000308e-04
-1.281390000000000110e-05
0.000000000000000000e+00
-2.915664400000000239e-03
-3.480770700000000023e-03
-2.547437200000000120e-03
6.559652000000000668e-04
3.632589400000000440e-03
-1.277760000000000113e-05
2.945019000000000109e-03
-2.266330000000000034e-05
-2.313665199999999974e-03
-3.505938700000000349e-03
-4.311714000000000237e-04
2.093118500000000319e-03
3.370164600000000350e-03
-1.285020000000000107e-05
0.000000000000000000e+00
1.105322900000000035e-03
-3.312181400000000116e-03
-3.404214000000000025e-03
-1.613099400000000136e-03
-1.283810000000000165e-05
1.395311500000000161e-03
3.229659400000000312e-03
3.561671300000000297e-03
2.202926000000000016e-03
-8.724826000000000413e-04
-2.862751100000000219e-03
-3.493947600000000056e-03
5.485051000000000553e-04
-1.285020000000000107e-05
2.672055100000000037e-03
3.647702300000000165e-03
3.011847300000000324e-03
9.048380000000000940e-05
-2.241234600000000139e-03
-3.507499600000000065e-03
-3.180799600000000418e-03
-5.529942000000000798e-04
2.021123500000000274e-03
3.391000800000000190e-03
1.236559500000000093e-03
-1.287440000000000162e-05
-1.569503100000000121e-03
-3.270218600000000288e-03
-3.415454900000000366e-03
-1.740451900000000154e-03
1.322021800000000103e-03
3.572682300000000304e-03
2.327108300000000143e-03
-1.282600000000000053e-05
-2.797955600000000178e-03
-1.281390000000000110e-05
-3.486748100000000052e-03
-2.730703800000000396e-03
4.534233000000000469e-04
2.599213099999999992e-03
3.636219400000000133e-03
3.073545200000000078e-03
2.101770000000000038e-04
-3.489506900000000165e-03
-1.281390000000000110e-05
1.944869300000000214e-03
-1.281390000000000110e-05
3.530344400000000066e-03
3.422823800000000024e-03
1.372261000000000054e-03
-1.489461600000000071e-03
-1.283810000000000165e-05
-1.876117100000000096e-03
-1.285020000000000107e-05
0.000000000000000000e+00
3.126990900000000372e-03
3.587625800000000375e-03
2.427477800000000206e-03
-1.281390000000000110e-05
-6.936204000000000718e-04
-2.733982900000000126e-03
-3.489143900000000412e-03
-2.807938100000000308e-03
9.873600000000001486e-06
3.126519000000000346e-03
-2.098841800000000000e-03
-1.283810000000000165e-05
-3.480068900000000097e-03
-3.266503900000000335e-03
-8.255951000000000739e-04
-1.283810000000000165e-05
1.874919200000000133e-03
3.503192000000000025e-03
3.464423600000000100e-03
-1.406854900000000007e-03
-3.190358600000000114e-03
-3.450085100000000338e-03
-1.983843400000000028e-03
1.142227900000000089e-03
3.601105200000000346e-03
-1.286230000000000050e-05
2.513871800000000260e-03
-1.285020000000000107e-05
-5.799651000000000285e-04
-2.670917700000000321e-03
-2.873616900000000151e-03
2.460643900000000078e-03
3.649190600000000277e-03
-1.291070000000000160e-05
4.472160000000000089e-04
-2.026943600000000005e-03
-3.472954100000000353e-03
-9.450705000000000650e-04
-1.278970000000000055e-05
0.000000000000000000e+00
1.794163800000000151e-03
3.471889300000000241e-03
1.604665700000000150e-03
-3.139744300000000404e-03
-1.286230000000000050e-05
-2.106852000000000204e-03
-1.281390000000000110e-05
0.000000000000000000e+00
1.051961900000000002e-03
3.596591900000000418e-03
2.614253400000000113e-03
-1.282600000000000053e-05
-4.918408000000000632e-04
-2.606630400000000108e-03
-3.508479700000000350e-03
-2.946579900000000259e-03
1.026927000000000070e-04
2.379707000000000003e-03
3.633968800000000280e-03
5.901533000000000473e-04
-1.283810000000000165e-05
-3.430374200000000425e-03
-3.307643900000000175e-03
-1.083881700000000102e-03
1.719579400000000079e-03
-1.278970000000000055e-05
3.416967400000000057e-03
3.488115400000000102e-03
1.727916300000000016e-03
-1.242512700000000109e-03
-3.082886400000000096e-03
-3.447048000000000299e-03
-2.218087300000000199e-03
9.737717000000000334e-04
2.940251600000000267e-03
3.592732000000000391e-03
2.707508099999999997e-03
-3.810169000000000077e-04
-3.490753200000000153e-03
-2.999565800000000317e-03
-2.513170000000000199e-05
-1.276550000000000170e-05
3.610603700000000228e-03
-1.286230000000000050e-05
3.250096300000000164e-03
7.086486000000000781e-04
-1.874362600000000064e-03
-3.395381000000000267e-03
-3.332690900000000438e-03
-1.207483200000000149e-03
1.646447000000000101e-03
3.370745400000000214e-03
3.505757200000000039e-03
1.829967700000000074e-03
-3.025592899999999998e-03
-3.454779900000000143e-03
-1.285020000000000107e-05
-2.308389600000000305e-03
8.689131000000000545e-04
2.870204700000000136e-03
2.766822300000000047e-03
-1.281390000000000110e-05
-2.739561000000000383e-04
-3.496984700000000095e-03
-3.028884100000000384e-03
-1.431430000000000083e-04
-1.286230000000000050e-05
2.237544100000000199e-03
3.611547500000000278e-03
8.254136000000000892e-04
-1.800734100000000049e-03
-3.375101400000000279e-03
-1.278970000000000055e-05
-1.327962900000000113e-03
1.560670100000000147e-03
-1.278970000000000055e-05
3.323059300000000271e-03
3.506459000000000398e-03
1.938722500000000099e-03
-1.073306300000000102e-03
-2.974192100000000102e-03
-2.414046800000000260e-03
-1.287440000000000162e-05
7.727665000000000966e-04
2.796588300000000128e-03
3.602702400000000298e-03
2.841745500000000292e-03
-1.686014000000000219e-04
-2.383566900000000030e-03
-3.496936300000000070e-03
-3.075505400000000215e-03
-2.702776999999999957e-04
2.158119700000000248e-03
3.583729600000000112e-03
3.296378800000000255e-03
-1.728085700000000103e-03
-1.285020000000000107e-05
-3.333997700000000241e-03
-3.356624700000000131e-03
-1.462696400000000011e-03
1.482806600000000129e-03
3.270424300000000176e-03
3.512859900000000427e-03
2.067369700000000129e-03
-2.916124200000000041e-03
-2.514053300000000137e-03
-1.281390000000000110e-05
6.929670000000000621e-04
-1.282600000000000053e-05
2.736330300000000028e-03
3.599060300000000382e-03
-2.311390400000000109e-03
-3.474236700000000143e-03
-1.287440000000000162e-05
0.000000000000000000e+00
-3.119464700000000416e-03
-3.935162000000000187e-04
2.089319100000000106e-03
3.549159900000000388e-03
3.328322800000000151e-03
1.065477599999999992e-03
-3.381320800000000432e-03
-1.275340000000000058e-05
-1.584482900000000211e-03
-1.281390000000000110e-05
3.212900900000000178e-03
-1.283810000000000165e-05
3.527621900000000189e-03
-2.852429800000000348e-03
-1.283810000000000165e-05
0.000000000000000000e+00
-2.603242400000000106e-03
-1.281390000000000110e-05
2.653251700000000372e-03
-1.283810000000000165e-05
2.972244000000000188e-03
-1.283810000000000165e-05
5.837040000000000614e-05
-2.243170600000000264e-03
-3.479379200000000394e-03
-5.342028999999999875e-04
-1.283810000000000165e-05
3.539104800000000221e-03
3.356310100000000404e-03
-1.577017200000000070e-03
-3.261397700000000319e-03
-1.285020000000000107e-05
-3.386826300000000435e-03
-1.286230000000000050e-05
-1.697460600000000016e-03
1.320388300000000133e-03
3.161403300000000232e-03
3.532764400000000440e-03
2.262869399999999954e-03
-8.059810000000001019e-04
-2.791361100000000050e-03
-3.462015700000000383e-03
-2.684082500000000131e-03
4.628371000000000481e-04
2.584366399999999970e-03
3.017364900000000117e-03
1.768294000000000116e-04
-2.172131500000000059e-03
-1.276550000000000170e-05
-3.185264500000000321e-03
-6.540292000000000501e-04
1.940948900000000156e-03
-1.280180000000000167e-05
3.510076900000000302e-03
1.316153300000000130e-03
-1.283810000000000165e-05
-3.214619100000000191e-03
-3.395030100000000304e-03
-1.283810000000000165e-05
-1.831201900000000056e-03
1.244170400000000091e-03
3.112107900000000114e-03
3.546316400000000448e-03
-7.146865000000000292e-04
-2.730110900000000309e-03
-1.281390000000000110e-05
-2.771650200000000137e-03
3.676343000000000319e-04
2.517344500000000089e-03
3.604614200000000410e-03
3.084084300000000060e-03
-2.101273900000000163e-03
-1.283810000000000165e-05
-3.452299400000000389e-03
-3.228957600000000386e-03
-1.282600000000000053e-05
-7.992776000000000264e-04
1.869353200000000098e-03
3.409271800000000015e-03
-1.283810000000000165e-05
1.453064800000000061e-03
-1.417648100000000119e-03
-3.166775700000000384e-03
-3.412030600000000129e-03
-1.954839700000000121e-03
1.158357200000000118e-03
3.051607900000000324e-03
2.487808400000000343e-03
-6.108080000000000107e-04
-2.663427800000000168e-03
-3.468561800000000053e-03
-2.843996100000000145e-03
-1.283810000000000165e-05
2.313036000000000193e-04
2.447563800000000095e-03
3.607808600000000313e-03
3.130499900000000002e-03
4.239598000000000129e-04
-2.028044700000000353e-03
-9.136589000000000082e-04
-1.281390000000000110e-05
0.000000000000000000e+00
1.797999500000000165e-03
3.447653000000000176e-03
3.435661900000000317e-03
-1.339167500000000002e-03
-3.126627900000000185e-03
-1.285020000000000107e-05
-3.423949100000000384e-03
1.065501800000000004e-03
-1.283810000000000165e-05
2.991882300000000064e-03
2.571600900000000148e-03
-1.285020000000000107e-05
-2.593768100000000236e-03
-1.289860000000000048e-05
-3.481278900000000284e-03
-2.903044100000000058e-03
1.195964000000000125e-04
2.375447799999999988e-03
3.622062400000000248e-03
5.444879000000000559e-04
-1.277760000000000113e-05
-1.950386900000000224e-03
-3.422993200000000111e-03
-3.273715500000000129e-03
-1.041689000000000156e-03
1.724818700000000163e-03
3.411510300000000079e-03
3.454864600000000403e-03
1.692923100000000075e-03
-1.251611900000000003e-03
-3.076316100000000414e-03
-2.185247900000000278e-03
9.763974000000000784e-04
2.934613000000000412e-03
3.571363400000000278e-03
2.682158600000000229e-03
-4.046361000000000272e-04
-1.285020000000000107e-05
-2.523043600000000192e-03
-3.470957600000000413e-03
-2.962709200000000070e-03
6.691300000000000631e-06
2.304916900000000043e-03
3.602545100000000434e-03
3.217486800000000143e-03
6.715500000000000332e-04
-1.878730700000000135e-03
-3.392259200000000401e-03
-3.303578300000000259e-03
-1.175091500000000023e-03
1.649629300000000215e-03
3.366353100000000348e-03
3.475374100000000292e-03
-1.171062200000000126e-03
-1.288650000000000105e-05
-3.435988600000000268e-03
-1.282600000000000053e-05
-2.299556600000000114e-03
8.917216000000000378e-04
2.866986100000000221e-03
3.578696000000000134e-03
2.754540800000000039e-03
-3.030687000000000008e-04
3.037100000000000110e-06
-3.025133100000000196e-03
-1.265902000000000065e-04
2.234700600000000259e-03
3.584915400000000286e-03
3.256339900000000329e-03
7.974021000000000407e-04
-1.813269700000000187e-03
-3.367018600000000039e-03
-3.340241300000000406e-03
-1.305275400000000191e-03
3.317928900000000243e-03
1.915720400000000233e-03
-1.086664700000000011e-03
-1.283810000000000165e-05
-2.971881000000000002e-03
-1.278970000000000055e-05
-3.442740400000000259e-03
7.783204000000000164e-04
2.794882200000000337e-03
3.582011400000000099e-03
-1.281390000000000110e-05
2.819868700000000353e-03
-1.852389000000000130e-04
-3.490983100000000054e-03
-1.283810000000000165e-05
-3.066454600000000346e-03
-2.515711000000000011e-04
2.163225900000000264e-03
3.280890800000000121e-03
9.222741000000000879e-04
-1.739629100000000166e-03
-3.341778000000000109e-03
-1.287440000000000162e-05
-3.344161700000000247e-03
-1.433015100000000191e-03
1.491748500000000159e-03
3.271392300000000239e-03
3.506858300000000386e-03
-1.002327700000000144e-03
-1.280180000000000167e-05
-2.924376400000000369e-03
-3.451500800000000414e-03
-2.497343200000000027e-03
6.889498000000000627e-04
2.738847100000000017e-03
3.589440800000000438e-03
2.893206800000000002e-03
-7.990840000000000898e-05
-2.329842900000000244e-03
-3.482573600000000297e-03
-3.105815900000000358e-03
2.097958500000000198e-03
3.557412100000000282e-03
3.314093200000000228e-03
-5.075107840000000342e-02
-1.425380000000000065e-05
-1.357620000000000056e-05
-3.364755900000000396e-03
-1.560839500000000017e-03
1.418700800000000008e-03
3.224916200000000049e-03
3.517433700000000170e-03
2.156716099999999962e-03
-9.099442000000000554e-04
-2.863949000000000182e-03
-2.592098300000000247e-03
-1.281390000000000110e-05
5.978851999999999995e-04
2.668933300000000172e-03
3.594111400000000230e-03
2.955679100000000153e-03
3.633629999999999971e-05
-2.251810000000000356e-03
-3.467109800000000176e-03
-3.146834900000000136e-03
2.028068899999999931e-03
1.718200000000000126e-06
3.350986100000000276e-03
-1.592130100000000012e-03
-1.285020000000000107e-05
-3.259122900000000021e-03
-3.389960200000000090e-03
-1.687393400000000059e-03
3.536987300000000219e-03
-1.285020000000000107e-05
2.250249100000000207e-03
-1.283810000000000165e-05
-8.200896000000000704e-04
-2.797628900000000227e-03
-3.454441100000000403e-03
-2.669284200000000135e-03
4.874606000000000403e-04
2.602189700000000216e-03
3.602787100000000124e-03
3.007430800000000012e-03
-2.188575400000000032e-03
-3.475023200000000329e-03
-1.281390000000000110e-05
-3.179214500000000256e-03
-6.297687000000000814e-04
1.962692600000000027e-03
3.513961000000000341e-03
3.374472200000000390e-03
-1.511556200000000122e-03
-3.222508300000000332e-03
-1.278970000000000055e-05
-3.394098400000000043e-03
-1.797055700000000115e-03
1.248526400000000156e-03
3.116391300000000142e-03
3.537979500000000294e-03
-7.200952000000000915e-04
-2.738629300000000339e-03
-3.468779600000000164e-03
3.753178000000000135e-04
-1.281390000000000110e-05
0.000000000000000000e+00
2.529166200000000295e-03
3.613568200000000230e-03
3.057899900000000080e-03
2.784089000000000442e-04
-2.114063599999999998e-03
-3.466698400000000398e-03
-3.213893100000000252e-03
-7.598074000000000668e-04
1.881259600000000131e-03
3.478665300000000245e-03
3.395320500000000019e-03
1.413860800000000129e-03
-1.436270000000000125e-03
-3.187079500000000384e-03
-3.405496600000000249e-03
-1.925545600000000065e-03
1.169356100000000119e-03
3.063139200000000381e-03
3.544985400000000200e-03
2.458586900000000325e-03
-2.683610600000000106e-03
-3.468489200000000449e-03
-1.282600000000000053e-05
-2.830298900000000062e-03
2.744885000000000402e-04
2.461781300000000228e-03
3.598576300000000134e-03
3.111067300000000015e-03
3.908542000000000093e-04
-2.047925000000000353e-03
-3.442897700000000123e-03
-3.250096300000000164e-03
-8.911045000000000467e-04
1.811539400000000168e-03
3.445341900000000075e-03
3.421928400000000432e-03
1.535248000000000125e-03
-1.365485000000000049e-03
-3.424070100000000446e-03
-2.043629500000000102e-03
1.092605800000000021e-03
3.004345300000000381e-03
3.558101800000000418e-03
-1.283810000000000165e-05
2.549143300000000344e-03
-5.378086999999999928e-04
-2.614737400000000361e-03
-3.470776100000000104e-03
-2.895070200000000090e-03
1.504755999999999997e-04
2.391903800000000184e-03
3.599411200000000345e-03
3.162274500000000245e-03
5.068932000000000819e-04
-1.980419100000000224e-03
-3.426211800000000026e-03
-3.283601200000000209e-03
-1.021772400000000138e-03
3.403161300000000136e-03
-1.285020000000000107e-05
1.647160900000000034e-03
-1.277760000000000113e-05
-3.088875900000000348e-03
-3.437186500000000231e-03
-1.278970000000000055e-05
-2.150411999999999983e-03
9.909053000000001433e-04
3.567818100000000412e-03
-1.283810000000000165e-05
2.626087200000000108e-03
-4.374029000000000198e-04
-2.554334200000000187e-03
-2.947027600000000271e-03
-1.282600000000000053e-05
2.993540000000000141e-05
2.322340900000000301e-03
3.607772300000000078e-03
3.186764900000000223e-03
6.414573000000000020e-04
-1.911207100000000087e-03
-3.408896700000000040e-03
-3.300154000000000021e-03
-1.144950400000000184e-03
1.664960000000000051e-03
3.460394300000000419e-03
-1.281390000000000110e-05
1.763042600000000026e-03
-1.202195500000000040e-03
-3.047034100000000148e-03
-3.439195100000000394e-03
-2.266402600000000031e-03
9.066288000000000905e-04
2.882292600000000045e-03
3.574981300000000181e-03
-3.351337000000000131e-04
-2.486404800000000057e-03
-1.272920000000000003e-05
-3.486421400000000101e-03
-3.011302800000000262e-03
-8.405870000000000887e-05
2.252269800000000158e-03
3.584637100000000361e-03
7.534186000000000442e-04
-1.276550000000000170e-05
-1.837590700000000079e-03
-3.326072200000000298e-03
-1.285020000000000107e-05
3.321002300000000084e-03
-1.282600000000000053e-05
3.482295300000000371e-03
-1.118778099999999994e-03
-1.281390000000000110e-05
-2.989655900000000224e-03
-1.283810000000000165e-05
-3.444168200000000124e-03
-2.375048500000000000e-03
8.170888000000000500e-04
2.814278500000000089e-03
3.573347800000000428e-03
2.798342800000000376e-03
-2.246244000000000105e-04
-2.417543700000000101e-03
-3.057512700000000316e-03
-2.267056000000000203e-04
2.181230699999999953e-03
3.568979700000000140e-03
8.808316000000000930e-04
-1.281390000000000110e-05
0.000000000000000000e+00
-1.767652700000000221e-03
-3.345359600000000211e-03
-3.357253900000000020e-03
-1.403926700000000024e-03
1.515730700000000094e-03
3.274344700000000018e-03
3.502816900000000049e-03
1.994418800000000245e-03
-1.029964100000000000e-03
-2.937456500000000352e-03
-3.455409100000000032e-03
-2.466572900000000082e-03
2.750281600000000024e-03
3.588049300000000375e-03
2.867627400000000333e-03
-1.106666000000000019e-04
-1.281390000000000110e-05
-2.344895300000000155e-03
-3.487849200000000399e-03
-3.523157000000000393e-04
2.114777500000000147e-03
-1.275340000000000058e-05
3.568205300000000177e-03
3.305586900000000421e-03
1.003924900000000096e-03
-1.689958600000000073e-03
-3.315617800000000143e-03
-3.366171600000000038e-03
-1.527104700000000070e-03
1.430437800000000171e-03
3.230772600000000015e-03
3.507656900000000362e-03
2.113313400000000047e-03
-9.312160000000000099e-04
-2.873520100000000101e-03
-3.460007100000000221e-03
-2.564582900000000019e-03
6.101183000000000908e-04
2.683283900000000156e-03
2.938097800000000030e-03
8.808800000000001110e-06
-2.270722300000000294e-03
-1.285020000000000107e-05
-3.132919900000000375e-03
-1.281390000000000110e-05
-4.664187000000000411e-04
2.043206000000000102e-03
3.540726200000000184e-03
3.334989900000000316e-03
1.144793100000000103e-03
-1.602330400000000037e-03
-3.272469200000000140e-03
-3.375851600000000230e-03
-1.662310100000000210e-03
1.356010700000000180e-03
3.181791800000000059e-03
2.238500000000000038e-03
-1.280180000000000167e-05
-8.449793000000000364e-04
-3.458071100000000096e-03
-2.660547999999999993e-03
-1.282600000000000053e-05
5.132577999999999837e-04
3.591957600000000427e-03
-1.285020000000000107e-05
1.223794000000000162e-04
-1.277760000000000113e-05
-3.469457200000000078e-03
-1.281390000000000110e-05
-3.184720000000000259e-03
-6.166402000000000732e-04
1.965814400000000326e-03
3.510137400000000116e-03
3.372862900000000216e-03
1.271939900000000016e-03
-3.228304200000000051e-03
-3.404637500000000025e-03
-1.281390000000000110e-05
-1.786129400000000152e-03
3.122029899999999997e-03
-1.285020000000000107e-05
3.541972500000000173e-03
-7.500427000000000483e-04
-1.285020000000000107e-05
-2.754407700000000188e-03
-3.467702700000000263e-03
-2.740662100000000080e-03
2.540189300000000091e-03
3.603174300000000323e-03
-1.281390000000000110e-05
3.051269100000000151e-03
2.415644000000000211e-04
-2.128765099999999945e-03
-3.471707800000000364e-03
-3.215296700000000105e-03
-7.423108000000000961e-04
1.891883400000000156e-03
3.487498300000000436e-03
3.397631600000000120e-03
-3.190661100000000052e-03
-3.412647700000000228e-03
-1.278970000000000055e-05
1.179689499999999995e-03
3.071052600000000101e-03
-1.278970000000000055e-05
0.000000000000000000e+00
3.549716500000000240e-03
2.428566800000000331e-03
-6.440346000000000222e-04
-2.690483400000000160e-03
-3.479161400000000282e-03
-2.814375300000000139e-03
2.771868000000000140e-04
3.608958100000000252e-03
-1.283810000000000165e-05
3.098580100000000118e-03
3.719177000000000051e-04
-2.057738099999999962e-03
-3.447846600000000275e-03
-8.751083000000000863e-04
-1.281390000000000110e-05
1.818521100000000060e-03
3.446685000000000113e-03
3.418032200000000170e-03
-1.368558400000000107e-03
-1.288650000000000105e-05
-3.416749600000000379e-03
-1.289860000000000048e-05
1.097457900000000123e-03
-1.285020000000000107e-05
3.006499100000000185e-03
3.549994800000000165e-03
2.540068300000000029e-03
-5.510098000000000383e-04
-2.621585999999999968e-03
-2.888947599999999987e-03
-1.287440000000000162e-05
1.645600000000000101e-04
2.397070500000000014e-03
3.597801900000000171e-03
3.154070700000000376e-03
5.000688000000000528e-04
-1.982016300000000175e-03
-3.271610100000000351e-03
-1.277760000000000113e-05
-1.004796100000000109e-03
3.409489600000000127e-03
3.447302100000000213e-03
-1.283810000000000165e-05
1.646846300000000089e-03
-1.293054399999999998e-03
-3.090533600000000113e-03
-3.434693900000000254e-03
-2.153267600000000146e-03
2.944329300000000406e-03
-1.283810000000000165e-05
3.561320400000000334e-03
-4.417710000000000365e-04
-1.276550000000000170e-05
-2.557347100000000213e-03
-3.474938500000000069e-03
-2.948528000000000173e-03
3.632420000000000028e-05
2.332408100000000258e-03
3.595430300000000256e-03
3.194145900000000104e-03
6.243721000000000253e-04
-1.918914800000000136e-03
-3.302428800000000320e-03
-1.136129499999999999e-03
-1.282600000000000053e-05
1.675583800000000076e-03
3.372112700000000265e-03
3.462935300000000421e-03
1.743041300000000180e-03
-1.207410600000000112e-03
-3.045364300000000159e-03
-2.246510200000000242e-03
-1.282600000000000053e-05
9.133564000000000700e-04
2.883067000000000008e-03
3.576796300000000244e-03
2.703127900000000354e-03
-3.346981000000000066e-04
-2.486392700000000268e-03
-2.993092300000000251e-03
-1.283810000000000165e-05
-9.667900000000000051e-05
3.596349900000000294e-03
3.221600800000000084e-03
7.555240000000000393e-04
-1.287440000000000162e-05
-1.837227700000000109e-03
-3.378102200000000083e-03
-3.312846900000000240e-03
-1.264946100000000117e-03
1.597466200000000145e-03
3.331880200000000240e-03
3.477939300000000306e-03
1.884938000000000065e-03
-1.121331200000000002e-03
-2.991567700000000336e-03
-3.445487100000000150e-03
-2.368139400000000144e-03
8.245908000000001011e-04
2.819759800000000080e-03
2.801077400000000044e-03
-2.271412000000000268e-04
-1.283810000000000165e-05
-2.414857500000000025e-03
-3.485731700000000398e-03
-1.988877000000000169e-04
-1.283810000000000165e-05
2.185066399999999968e-03
3.267375100000000348e-03
-1.763187800000000100e-03
-1.280180000000000167e-05
-3.348602400000000139e-03
-1.281390000000000110e-05
-3.341971600000000209e-03
-1.400466100000000201e-03
1.517376300000000070e-03
3.281157000000000257e-03
3.494129100000000366e-03
2.001061699999999964e-03
-1.040600000000000032e-03
-2.942550600000000145e-03
-3.452517200000000067e-03
-2.470166599999999973e-03
7.236889000000000906e-04
2.753826900000000324e-03
2.866707800000000295e-03
-1.239403000000000032e-04
-1.281390000000000110e-05
-2.350533900000000009e-03
-3.446322000000000036e-04
-1.278970000000000055e-05
2.117016000000000210e-03
3.560763800000000048e-03
3.301255100000000369e-03
-1.278970000000000055e-05
9.979959000000000920e-04
-1.700364600000000203e-03
-3.322381700000000358e-03
-3.375258700000000143e-03
-1.517993400000000170e-03
1.441969100000000011e-03
3.229974000000000040e-03
3.514904800000000391e-03
2.096494400000000098e-03
-9.434370000000000950e-04
-2.881179400000000342e-03
-3.453170600000000402e-03
-2.553475099999999963e-03
2.692129000000000136e-03
3.600427600000000432e-03
-3.460600000000000376e-06
-2.285036600000000043e-03
-1.285020000000000107e-05
0.000000000000000000e+00
-3.493560400000000291e-03
-3.134311400000000004e-03
-4.614093000000000209e-04
2.051833299999999971e-03
3.553056100000000217e-03
3.327947700000000175e-03
1.113550900000000133e-03
-1.620916000000000023e-03
-3.287812000000000200e-03
-3.379626800000000431e-03
-1.638340000000000065e-03
1.360838600000000053e-03
3.186946400000000099e-03
3.524354900000000249e-03
2.204148099999999992e-03
-8.600559000000000676e-04
-2.830698200000000050e-03
-2.644987400000000256e-03
5.218246000000000386e-04
2.621670700000000229e-03
-1.281390000000000110e-05
3.599399100000000122e-03
2.986691400000000222e-03
-2.215292200000000284e-03
-1.289860000000000048e-05
-3.169135200000000076e-03
-1.286230000000000050e-05
-5.875518000000000147e-04
1.974720000000000121e-03
3.515364600000000193e-03
3.356031800000000044e-03
1.252821900000000190e-03
-1.543645400000000093e-03
-3.240936600000000022e-03
-3.390746700000000276e-03
1.285891200000000012e-03
-1.281390000000000110e-05
3.132012400000000127e-03
3.542698500000000111e-03
-2.763664200000000380e-03
-1.278970000000000055e-05
0.000000000000000000e+00
-2.734648400000000250e-03
4.204266000000000448e-04
2.553281500000000297e-03
3.598999800000000134e-03
2.260764000000000230e-04
-1.285020000000000107e-05
0.000000000000000000e+00
-2.143515000000000351e-03
-3.465488400000000212e-03
-3.212864600000000376e-03
-7.364181000000000026e-04
1.903850300000000219e-03
3.477769900000000219e-03
3.389984400000000102e-03
1.375201300000000043e-03
-1.470634000000000177e-03
-3.193056900000000413e-03
-3.407323700000000101e-03
-1.882251800000000206e-03
3.073206400000000338e-03
3.546764100000000027e-03
2.410416800000000134e-03
-1.281390000000000110e-05
-6.675691000000000524e-04
-2.698045900000000351e-03
-2.800411900000000353e-03
-1.283810000000000165e-05
2.983255000000000086e-04
2.479761900000000338e-03
3.448016000000000362e-04
-1.285020000000000107e-05
0.000000000000000000e+00
-2.072475900000000145e-03
-3.465210100000000286e-03
-3.232986900000000066e-03
1.837965800000000054e-03
3.462862700000000384e-03
-1.286230000000000050e-05
3.414244900000000180e-03
-3.147560900000000075e-03
-3.414027100000000068e-03
-1.287440000000000162e-05
2.973696000000000065e-03
1.113308900000000009e-03
3.012561200000000040e-03
3.561743900000000334e-03
2.511209800000000197e-03
-5.649490000000000284e-04
-2.623074300000000081e-03
-3.479137200000000270e-03
-2.860996600000000403e-03
1.807014000000000179e-04
2.402261400000000290e-03
3.607965900000000177e-03
3.130257900000000312e-03
4.776838000000000156e-04
-1.991490600000000045e-03
-3.434488200000000366e-03
-3.252407400000000264e-03
-9.771960000000000542e-04
1.766515300000000071e-03
3.434790700000000304e-03
-1.281390000000000110e-05
-1.299249600000000138e-03
-1.287440000000000162e-05
-3.099584400000000416e-03
-3.416035700000000230e-03
-2.125897399999999993e-03
1.033352100000000003e-03
2.959345400000000081e-03
3.557956600000000344e-03
2.609110900000000295e-03
-4.704601000000000529e-04
-2.563433400000000081e-03
-3.471986100000000290e-03
-2.932822200000000362e-03
7.872260000000001095e-05
3.596579800000000195e-03
-1.283810000000000165e-05
3.181937000000000133e-03
6.000269000000000132e-04
-1.923645900000000176e-03
-3.406283100000000435e-03
-1.115002900000000010e-03
-1.285020000000000107e-05
1.693443400000000125e-03
3.461253400000000209e-03
1.741504600000000043e-03
-1.283810000000000165e-05
-1.230110200000000039e-03
-3.432358600000000141e-03
-2.225577200000000352e-03
-1.283810000000000165e-05
9.471638000000000539e-04
3.567757600000000164e-03
2.691487700000000025e-03
-2.502897100000000055e-03
-1.282600000000000053e-05
-3.480722300000000432e-03
-1.282600000000000053e-05
-2.988203900000000347e-03
2.274570100000000098e-03
-1.283810000000000165e-05
3.595575500000000330e-03
3.221334600000000381e-03
-1.858765700000000092e-03
-3.315896100000000069e-03
-1.283810000000000165e-05
0.000000000000000000e+00
-1.225754199999999974e-03
1.620286800000000135e-03
3.338414200000000120e-03
3.480976400000000345e-03
1.835231200000000170e-03
-1.146378200000000049e-03
-3.439219300000000406e-03
-1.285020000000000107e-05
-2.322703900000000054e-03
2.838091300000000154e-03
2.760590800000000105e-03
-2.633081000000000007e-04
-1.278970000000000055e-05
-2.431265100000000196e-03
-1.281390000000000110e-05
-3.492979600000000427e-03
-3.025471900000000370e-03
-1.662661000000000174e-04
3.593385400000000292e-03
3.250011600000000337e-03
-1.281390000000000110e-05
8.235986000000000262e-04
-1.790219200000000080e-03
-3.363666900000000272e-03
-3.329121400000000126e-03
-1.349101600000000107e-03
3.296766000000000019e-03
-1.281390000000000110e-05
3.491394500000000265e-03
1.955589900000000072e-03
-1.060940100000000051e-03
-3.445148300000000410e-03
-2.427877100000000194e-03
-1.281390000000000110e-05
7.597711000000000481e-04
2.776332900000000152e-03
3.589198800000000314e-03
2.845835300000000220e-03
-1.573605000000000056e-04
-3.483239100000000421e-03
-3.076957400000000092e-03
-1.283810000000000165e-05
2.137622300000000149e-03
3.567551900000000276e-03
-1.283810000000000165e-05
3.284980600000000049e-03
9.691253000000000367e-04
-1.717740200000000220e-03
-3.350102800000000040e-03
-1.281390000000000110e-05
-1.479370200000000102e-03
1.471190600000000029e-03
2.076226900000000333e-03
-9.760949000000000318e-04
-2.895094400000000102e-03
-1.280180000000000167e-05
-3.443696300000000099e-03
-1.281390000000000110e-05
-2.525173199999999982e-03
6.674360000000000926e-04
3.583245600000000298e-03
2.914091400000000300e-03
-4.159980000000000107e-05
-1.286230000000000050e-05
-2.297499600000000360e-03
-3.471018100000000228e-03
-3.115931500000000340e-03
-4.191924000000000084e-04
2.074315100000000221e-03
3.547550600000000214e-03
3.329774800000000028e-03
1.081861000000000151e-03
-1.645563700000000082e-03
-3.374690000000000068e-03
-1.282600000000000053e-05
-1.595578600000000045e-03
1.394839600000000136e-03
3.200316900000000232e-03
3.526774900000000188e-03
2.173075300000000109e-03
-8.831669000000000975e-04
-3.453594100000000403e-03
-1.283810000000000165e-05
